# OpenSignals Text File Format
# {"98:D3:51:FD:71:01":{"sensor":["ECGBIT"],"device name":"98:D3:51:FD:71:01","column":["nSeq","I1","I2","O1","O2","A2"],"sync interval":2,"time":"12:12:07","comments":"","device connection":"BTH98:D3:51:FD:71:01","channels":[2],"date":"2024-09-18","mode":0,"digital IO":[0,0,1,1],"firmware version":0,"device":"bitalino_rev","position":0,"sampling rate":1000,"label":["A2"],"resolution":[10],"special":[{}]}}
# EndOfHeader
0	0	0	0	0	499
1	0	0	0	0	499
2	0	0	0	0	500
3	0	0	0	0	500
4	0	0	0	0	500
5	0	0	0	0	500
6	0	0	0	0	500
7	0	0	0	0	500
8	0	0	0	0	499
9	0	0	0	0	499
10	0	0	0	0	500
11	0	0	0	0	499
12	0	0	0	0	499
13	0	0	0	0	499
14	0	0	0	0	498
15	0	0	0	0	499
0	0	0	0	0	498
1	0	0	0	0	497
2	0	0	0	0	497
3	0	0	0	0	496
4	0	0	0	0	496
5	0	0	0	0	495
6	0	0	0	0	496
7	0	0	0	0	496
8	0	0	0	0	496
9	0	0	0	0	496
10	0	0	0	0	495
11	0	0	0	0	495
12	0	0	0	0	495
13	0	0	0	0	496
14	0	0	0	0	496
15	0	0	0	0	497
0	0	0	0	0	498
1	0	0	0	0	498
2	0	0	0	0	498
3	0	0	0	0	497
4	0	0	0	0	497
5	0	0	0	0	499
6	0	0	0	0	499
7	0	0	0	0	499
8	0	0	0	0	499
9	0	0	0	0	499
10	0	0	0	0	499
11	0	0	0	0	499
12	0	0	0	0	499
13	0	0	0	0	499
14	0	0	0	0	498
15	0	0	0	0	498
0	0	0	0	0	498
1	0	0	0	0	498
2	0	0	0	0	497
3	0	0	0	0	496
4	0	0	0	0	497
5	0	0	0	0	498
6	0	0	0	0	498
7	0	0	0	0	499
8	0	0	0	0	499
9	0	0	0	0	500
10	0	0	0	0	500
11	0	0	0	0	500
12	0	0	0	0	501
13	0	0	0	0	501
14	0	0	0	0	502
15	0	0	0	0	502
0	0	0	0	0	503
1	0	0	0	0	504
2	0	0	0	0	504
3	0	0	0	0	506
4	0	0	0	0	506
5	0	0	0	0	507
6	0	0	0	0	508
7	0	0	0	0	508
8	0	0	0	0	508
9	0	0	0	0	508
10	0	0	0	0	509
11	0	0	0	0	509
12	0	0	0	0	509
13	0	0	0	0	509
14	0	0	0	0	507
15	0	0	0	0	507
0	0	0	0	0	507
1	0	0	0	0	507
2	0	0	0	0	506
3	0	0	0	0	506
4	0	0	0	0	507
5	0	0	0	0	507
6	0	0	0	0	507
7	0	0	0	0	508
8	0	0	0	0	508
9	0	0	0	0	509
10	0	0	0	0	510
11	0	0	0	0	510
12	0	0	0	0	511
13	0	0	0	0	511
14	0	0	0	0	512
15	0	0	0	0	512
0	0	0	0	0	511
1	0	0	0	0	511
2	0	0	0	0	511
3	0	0	0	0	511
4	0	0	0	0	511
5	0	0	0	0	511
6	0	0	0	0	512
7	0	0	0	0	512
8	0	0	0	0	512
9	0	0	0	0	513
10	0	0	0	0	514
11	0	0	0	0	516
12	0	0	0	0	517
13	0	0	0	0	518
14	0	0	0	0	519
15	0	0	0	0	521
0	0	0	0	0	523
1	0	0	0	0	524
2	0	0	0	0	526
3	0	0	0	0	527
4	0	0	0	0	528
5	0	0	0	0	530
6	0	0	0	0	530
7	0	0	0	0	531
8	0	0	0	0	531
9	0	0	0	0	531
10	0	0	0	0	531
11	0	0	0	0	531
12	0	0	0	0	531
13	0	0	0	0	531
14	0	0	0	0	531
15	0	0	0	0	531
0	0	0	0	0	531
1	0	0	0	0	530
2	0	0	0	0	529
3	0	0	0	0	527
4	0	0	0	0	526
5	0	0	0	0	525
6	0	0	0	0	525
7	0	0	0	0	523
8	0	0	0	0	522
9	0	0	0	0	521
10	0	0	0	0	519
11	0	0	0	0	518
12	0	0	0	0	518
13	0	0	0	0	516
14	0	0	0	0	515
15	0	0	0	0	512
0	0	0	0	0	512
1	0	0	0	0	510
2	0	0	0	0	509
3	0	0	0	0	507
4	0	0	0	0	505
5	0	0	0	0	504
6	0	0	0	0	502
7	0	0	0	0	501
8	0	0	0	0	500
9	0	0	0	0	500
10	0	0	0	0	499
11	0	0	0	0	498
12	0	0	0	0	497
13	0	0	0	0	496
14	0	0	0	0	496
15	0	0	0	0	494
0	0	0	0	0	493
1	0	0	0	0	492
2	0	0	0	0	492
3	0	0	0	0	492
4	0	0	0	0	491
5	0	0	0	0	490
6	0	0	0	0	490
7	0	0	0	0	491
8	0	0	0	0	491
9	0	0	0	0	491
10	0	0	0	0	491
11	0	0	0	0	491
12	0	0	0	0	491
13	0	0	0	0	492
14	0	0	0	0	492
15	0	0	0	0	492
0	0	0	0	0	492
1	0	0	0	0	492
2	0	0	0	0	491
3	0	0	0	0	492
4	0	0	0	0	491
5	0	0	0	0	491
6	0	0	0	0	492
7	0	0	0	0	493
8	0	0	0	0	493
9	0	0	0	0	493
10	0	0	0	0	492
11	0	0	0	0	492
12	0	0	0	0	490
13	0	0	0	0	489
14	0	0	0	0	489
15	0	0	0	0	490
0	0	0	0	0	490
1	0	0	0	0	491
2	0	0	0	0	491
3	0	0	0	0	491
4	0	0	0	0	491
5	0	0	0	0	491
6	0	0	0	0	491
7	0	0	0	0	491
8	0	0	0	0	490
9	0	0	0	0	489
10	0	0	0	0	487
11	0	0	0	0	486
12	0	0	0	0	485
13	0	0	0	0	483
14	0	0	0	0	482
15	0	0	0	0	481
0	0	0	0	0	479
1	0	0	0	0	478
2	0	0	0	0	477
3	0	0	0	0	476
4	0	0	0	0	475
5	0	0	0	0	473
6	0	0	0	0	472
7	0	0	0	0	472
8	0	0	0	0	473
9	0	0	0	0	475
10	0	0	0	0	477
11	0	0	0	0	482
12	0	0	0	0	488
13	0	0	0	0	495
14	0	0	0	0	502
15	0	0	0	0	510
0	0	0	0	0	518
1	0	0	0	0	527
2	0	0	0	0	536
3	0	0	0	0	546
4	0	0	0	0	558
5	0	0	0	0	572
6	0	0	0	0	588
7	0	0	0	0	608
8	0	0	0	0	629
9	0	0	0	0	652
10	0	0	0	0	674
11	0	0	0	0	694
12	0	0	0	0	709
13	0	0	0	0	719
14	0	0	0	0	721
15	0	0	0	0	717
0	0	0	0	0	708
1	0	0	0	0	696
2	0	0	0	0	683
3	0	0	0	0	670
4	0	0	0	0	656
5	0	0	0	0	642
6	0	0	0	0	627
7	0	0	0	0	611
8	0	0	0	0	591
9	0	0	0	0	569
10	0	0	0	0	544
11	0	0	0	0	517
12	0	0	0	0	489
13	0	0	0	0	463
14	0	0	0	0	439
15	0	0	0	0	419
0	0	0	0	0	403
1	0	0	0	0	388
2	0	0	0	0	375
3	0	0	0	0	366
4	0	0	0	0	360
5	0	0	0	0	355
6	0	0	0	0	351
7	0	0	0	0	349
8	0	0	0	0	349
9	0	0	0	0	349
10	0	0	0	0	351
11	0	0	0	0	355
12	0	0	0	0	361
13	0	0	0	0	369
14	0	0	0	0	377
15	0	0	0	0	386
0	0	0	0	0	395
1	0	0	0	0	404
2	0	0	0	0	413
3	0	0	0	0	422
4	0	0	0	0	431
5	0	0	0	0	438
6	0	0	0	0	446
7	0	0	0	0	454
8	0	0	0	0	462
9	0	0	0	0	467
10	0	0	0	0	472
11	0	0	0	0	476
12	0	0	0	0	480
13	0	0	0	0	484
14	0	0	0	0	487
15	0	0	0	0	491
0	0	0	0	0	493
1	0	0	0	0	495
2	0	0	0	0	496
3	0	0	0	0	498
4	0	0	0	0	500
5	0	0	0	0	500
6	0	0	0	0	501
7	0	0	0	0	501
8	0	0	0	0	502
9	0	0	0	0	503
10	0	0	0	0	504
11	0	0	0	0	504
12	0	0	0	0	504
13	0	0	0	0	504
14	0	0	0	0	504
15	0	0	0	0	504
0	0	0	0	0	504
1	0	0	0	0	505
2	0	0	0	0	505
3	0	0	0	0	507
4	0	0	0	0	507
5	0	0	0	0	507
6	0	0	0	0	507
7	0	0	0	0	507
8	0	0	0	0	508
9	0	0	0	0	508
10	0	0	0	0	508
11	0	0	0	0	508
12	0	0	0	0	508
13	0	0	0	0	508
14	0	0	0	0	508
15	0	0	0	0	508
0	0	0	0	0	509
1	0	0	0	0	509
2	0	0	0	0	509
3	0	0	0	0	509
4	0	0	0	0	510
5	0	0	0	0	509
6	0	0	0	0	510
7	0	0	0	0	511
8	0	0	0	0	510
9	0	0	0	0	511
10	0	0	0	0	511
11	0	0	0	0	511
12	0	0	0	0	511
13	0	0	0	0	511
14	0	0	0	0	511
15	0	0	0	0	511
0	0	0	0	0	511
1	0	0	0	0	511
2	0	0	0	0	511
3	0	0	0	0	512
4	0	0	0	0	512
5	0	0	0	0	512
6	0	0	0	0	512
7	0	0	0	0	512
8	0	0	0	0	512
9	0	0	0	0	512
10	0	0	0	0	513
11	0	0	0	0	514
12	0	0	0	0	514
13	0	0	0	0	513
14	0	0	0	0	513
15	0	0	0	0	513
0	0	0	0	0	514
1	0	0	0	0	513
2	0	0	0	0	513
3	0	0	0	0	513
4	0	0	0	0	513
5	0	0	0	0	514
6	0	0	0	0	515
7	0	0	0	0	515
8	0	0	0	0	515
9	0	0	0	0	515
10	0	0	0	0	516
11	0	0	0	0	516
12	0	0	0	0	516
13	0	0	0	0	517
14	0	0	0	0	518
15	0	0	0	0	519
0	0	0	0	0	521
1	0	0	0	0	522
2	0	0	0	0	522
3	0	0	0	0	523
4	0	0	0	0	522
5	0	0	0	0	522
6	0	0	0	0	523
7	0	0	0	0	523
8	0	0	0	0	523
9	0	0	0	0	524
10	0	0	0	0	524
11	0	0	0	0	525
12	0	0	0	0	526
13	0	0	0	0	527
14	0	0	0	0	528
15	0	0	0	0	528
0	0	0	0	0	528
1	0	0	0	0	528
2	0	0	0	0	528
3	0	0	0	0	527
4	0	0	0	0	527
5	0	0	0	0	527
6	0	0	0	0	528
7	0	0	0	0	527
8	0	0	0	0	527
9	0	0	0	0	527
10	0	0	0	0	527
11	0	0	0	0	527
12	0	0	0	0	527
13	0	0	0	0	527
14	0	0	0	0	528
15	0	0	0	0	528
0	0	0	0	0	529
1	0	0	0	0	529
2	0	0	0	0	529
3	0	0	0	0	529
4	0	0	0	0	530
5	0	0	0	0	530
6	0	0	0	0	531
7	0	0	0	0	531
8	0	0	0	0	532
9	0	0	0	0	532
10	0	0	0	0	534
11	0	0	0	0	533
12	0	0	0	0	534
13	0	0	0	0	534
14	0	0	0	0	535
15	0	0	0	0	534
0	0	0	0	0	534
1	0	0	0	0	535
2	0	0	0	0	535
3	0	0	0	0	535
4	0	0	0	0	536
5	0	0	0	0	536
6	0	0	0	0	536
7	0	0	0	0	536
8	0	0	0	0	536
9	0	0	0	0	536
10	0	0	0	0	536
11	0	0	0	0	536
12	0	0	0	0	536
13	0	0	0	0	535
14	0	0	0	0	533
15	0	0	0	0	531
0	0	0	0	0	532
1	0	0	0	0	532
2	0	0	0	0	531
3	0	0	0	0	531
4	0	0	0	0	531
5	0	0	0	0	531
6	0	0	0	0	532
7	0	0	0	0	532
8	0	0	0	0	532
9	0	0	0	0	532
10	0	0	0	0	531
11	0	0	0	0	531
12	0	0	0	0	532
13	0	0	0	0	531
14	0	0	0	0	530
15	0	0	0	0	531
0	0	0	0	0	531
1	0	0	0	0	531
2	0	0	0	0	529
3	0	0	0	0	528
4	0	0	0	0	528
5	0	0	0	0	527
6	0	0	0	0	526
7	0	0	0	0	524
8	0	0	0	0	524
9	0	0	0	0	522
10	0	0	0	0	521
11	0	0	0	0	520
12	0	0	0	0	519
13	0	0	0	0	519
14	0	0	0	0	519
15	0	0	0	0	518
0	0	0	0	0	518
1	0	0	0	0	518
2	0	0	0	0	516
3	0	0	0	0	516
4	0	0	0	0	516
5	0	0	0	0	515
6	0	0	0	0	515
7	0	0	0	0	514
8	0	0	0	0	513
9	0	0	0	0	512
10	0	0	0	0	512
11	0	0	0	0	511
12	0	0	0	0	511
13	0	0	0	0	510
14	0	0	0	0	509
15	0	0	0	0	509
0	0	0	0	0	508
1	0	0	0	0	507
2	0	0	0	0	506
3	0	0	0	0	505
4	0	0	0	0	504
5	0	0	0	0	503
6	0	0	0	0	501
7	0	0	0	0	500
8	0	0	0	0	499
9	0	0	0	0	499
10	0	0	0	0	497
11	0	0	0	0	496
12	0	0	0	0	496
13	0	0	0	0	496
14	0	0	0	0	495
15	0	0	0	0	495
0	0	0	0	0	495
1	0	0	0	0	494
2	0	0	0	0	494
3	0	0	0	0	493
4	0	0	0	0	493
5	0	0	0	0	492
6	0	0	0	0	492
7	0	0	0	0	492
8	0	0	0	0	492
9	0	0	0	0	491
10	0	0	0	0	490
11	0	0	0	0	490
12	0	0	0	0	489
13	0	0	0	0	490
14	0	0	0	0	490
15	0	0	0	0	490
0	0	0	0	0	490
1	0	0	0	0	489
2	0	0	0	0	489
3	0	0	0	0	489
4	0	0	0	0	487
5	0	0	0	0	487
6	0	0	0	0	486
7	0	0	0	0	486
8	0	0	0	0	485
9	0	0	0	0	483
10	0	0	0	0	483
11	0	0	0	0	482
12	0	0	0	0	482
13	0	0	0	0	482
14	0	0	0	0	483
15	0	0	0	0	483
0	0	0	0	0	483
1	0	0	0	0	483
2	0	0	0	0	484
3	0	0	0	0	483
4	0	0	0	0	483
5	0	0	0	0	483
6	0	0	0	0	482
7	0	0	0	0	482
8	0	0	0	0	482
9	0	0	0	0	483
10	0	0	0	0	483
11	0	0	0	0	483
12	0	0	0	0	483
13	0	0	0	0	483
14	0	0	0	0	483
15	0	0	0	0	484
0	0	0	0	0	485
1	0	0	0	0	485
2	0	0	0	0	485
3	0	0	0	0	485
4	0	0	0	0	485
5	0	0	0	0	484
6	0	0	0	0	483
7	0	0	0	0	485
8	0	0	0	0	486
9	0	0	0	0	486
10	0	0	0	0	487
11	0	0	0	0	487
12	0	0	0	0	487
13	0	0	0	0	487
14	0	0	0	0	488
15	0	0	0	0	489
0	0	0	0	0	489
1	0	0	0	0	489
2	0	0	0	0	489
3	0	0	0	0	489
4	0	0	0	0	489
5	0	0	0	0	490
6	0	0	0	0	490
7	0	0	0	0	490
8	0	0	0	0	490
9	0	0	0	0	490
10	0	0	0	0	490
11	0	0	0	0	490
12	0	0	0	0	491
13	0	0	0	0	491
14	0	0	0	0	491
15	0	0	0	0	491
0	0	0	0	0	491
1	0	0	0	0	491
2	0	0	0	0	491
3	0	0	0	0	491
4	0	0	0	0	491
5	0	0	0	0	492
6	0	0	0	0	492
7	0	0	0	0	492
8	0	0	0	0	492
9	0	0	0	0	492
10	0	0	0	0	493
11	0	0	0	0	493
12	0	0	0	0	494
13	0	0	0	0	494
14	0	0	0	0	494
15	0	0	0	0	494
0	0	0	0	0	494
1	0	0	0	0	494
2	0	0	0	0	493
3	0	0	0	0	492
4	0	0	0	0	492
5	0	0	0	0	491
6	0	0	0	0	491
7	0	0	0	0	491
8	0	0	0	0	491
9	0	0	0	0	491
10	0	0	0	0	491
11	0	0	0	0	492
12	0	0	0	0	492
13	0	0	0	0	492
14	0	0	0	0	492
15	0	0	0	0	492
0	0	0	0	0	492
1	0	0	0	0	493
2	0	0	0	0	494
3	0	0	0	0	496
4	0	0	0	0	496
5	0	0	0	0	495
6	0	0	0	0	495
7	0	0	0	0	495
8	0	0	0	0	496
9	0	0	0	0	496
10	0	0	0	0	496
11	0	0	0	0	496
12	0	0	0	0	496
13	0	0	0	0	496
14	0	0	0	0	496
15	0	0	0	0	496
0	0	0	0	0	496
1	0	0	0	0	497
2	0	0	0	0	497
3	0	0	0	0	497
4	0	0	0	0	496
5	0	0	0	0	496
6	0	0	0	0	497
7	0	0	0	0	497
8	0	0	0	0	498
9	0	0	0	0	497
10	0	0	0	0	498
11	0	0	0	0	498
12	0	0	0	0	498
13	0	0	0	0	498
14	0	0	0	0	498
15	0	0	0	0	499
0	0	0	0	0	499
1	0	0	0	0	499
2	0	0	0	0	499
3	0	0	0	0	498
4	0	0	0	0	498
5	0	0	0	0	498
6	0	0	0	0	498
7	0	0	0	0	499
8	0	0	0	0	499
9	0	0	0	0	499
10	0	0	0	0	499
11	0	0	0	0	499
12	0	0	0	0	498
13	0	0	0	0	498
14	0	0	0	0	499
15	0	0	0	0	499
0	0	0	0	0	500
1	0	0	0	0	501
2	0	0	0	0	501
3	0	0	0	0	501
4	0	0	0	0	501
5	0	0	0	0	501
6	0	0	0	0	501
7	0	0	0	0	501
8	0	0	0	0	500
9	0	0	0	0	500
10	0	0	0	0	500
11	0	0	0	0	499
12	0	0	0	0	499
13	0	0	0	0	498
14	0	0	0	0	498
15	0	0	0	0	498
0	0	0	0	0	498
1	0	0	0	0	499
2	0	0	0	0	499
3	0	0	0	0	499
4	0	0	0	0	499
5	0	0	0	0	500
6	0	0	0	0	501
7	0	0	0	0	501
8	0	0	0	0	502
9	0	0	0	0	502
10	0	0	0	0	503
11	0	0	0	0	503
12	0	0	0	0	503
13	0	0	0	0	502
14	0	0	0	0	501
15	0	0	0	0	500
0	0	0	0	0	500
1	0	0	0	0	501
2	0	0	0	0	501
3	0	0	0	0	500
4	0	0	0	0	501
5	0	0	0	0	501
6	0	0	0	0	501
7	0	0	0	0	501
8	0	0	0	0	500
9	0	0	0	0	500
10	0	0	0	0	501
11	0	0	0	0	501
12	0	0	0	0	501
13	0	0	0	0	501
14	0	0	0	0	502
15	0	0	0	0	503
0	0	0	0	0	504
1	0	0	0	0	503
2	0	0	0	0	504
3	0	0	0	0	504
4	0	0	0	0	504
5	0	0	0	0	504
6	0	0	0	0	505
7	0	0	0	0	505
8	0	0	0	0	505
9	0	0	0	0	505
10	0	0	0	0	505
11	0	0	0	0	505
12	0	0	0	0	505
13	0	0	0	0	505
14	0	0	0	0	505
15	0	0	0	0	506
0	0	0	0	0	508
1	0	0	0	0	508
2	0	0	0	0	508
3	0	0	0	0	508
4	0	0	0	0	508
5	0	0	0	0	508
6	0	0	0	0	509
7	0	0	0	0	510
8	0	0	0	0	510
9	0	0	0	0	510
10	0	0	0	0	509
11	0	0	0	0	508
12	0	0	0	0	507
13	0	0	0	0	507
14	0	0	0	0	507
15	0	0	0	0	507
0	0	0	0	0	507
1	0	0	0	0	507
2	0	0	0	0	508
3	0	0	0	0	508
4	0	0	0	0	509
5	0	0	0	0	509
6	0	0	0	0	510
7	0	0	0	0	510
8	0	0	0	0	511
9	0	0	0	0	512
10	0	0	0	0	513
11	0	0	0	0	513
12	0	0	0	0	514
13	0	0	0	0	515
14	0	0	0	0	516
15	0	0	0	0	517
0	0	0	0	0	519
1	0	0	0	0	520
2	0	0	0	0	521
3	0	0	0	0	524
4	0	0	0	0	525
5	0	0	0	0	527
6	0	0	0	0	527
7	0	0	0	0	528
8	0	0	0	0	529
9	0	0	0	0	529
10	0	0	0	0	531
11	0	0	0	0	531
12	0	0	0	0	532
13	0	0	0	0	532
14	0	0	0	0	531
15	0	0	0	0	531
0	0	0	0	0	530
1	0	0	0	0	529
2	0	0	0	0	527
3	0	0	0	0	526
4	0	0	0	0	526
5	0	0	0	0	525
6	0	0	0	0	524
7	0	0	0	0	524
8	0	0	0	0	523
9	0	0	0	0	522
10	0	0	0	0	521
11	0	0	0	0	519
12	0	0	0	0	519
13	0	0	0	0	518
14	0	0	0	0	517
15	0	0	0	0	515
0	0	0	0	0	513
1	0	0	0	0	512
2	0	0	0	0	510
3	0	0	0	0	509
4	0	0	0	0	508
5	0	0	0	0	506
6	0	0	0	0	505
7	0	0	0	0	503
8	0	0	0	0	503
9	0	0	0	0	502
10	0	0	0	0	501
11	0	0	0	0	500
12	0	0	0	0	499
13	0	0	0	0	498
14	0	0	0	0	497
15	0	0	0	0	496
0	0	0	0	0	496
1	0	0	0	0	495
2	0	0	0	0	495
3	0	0	0	0	494
4	0	0	0	0	494
5	0	0	0	0	494
6	0	0	0	0	494
7	0	0	0	0	494
8	0	0	0	0	494
9	0	0	0	0	494
10	0	0	0	0	493
11	0	0	0	0	493
12	0	0	0	0	492
13	0	0	0	0	490
14	0	0	0	0	491
15	0	0	0	0	491
0	0	0	0	0	491
1	0	0	0	0	491
2	0	0	0	0	491
3	0	0	0	0	490
4	0	0	0	0	490
5	0	0	0	0	490
6	0	0	0	0	491
7	0	0	0	0	491
8	0	0	0	0	492
9	0	0	0	0	493
10	0	0	0	0	494
11	0	0	0	0	495
12	0	0	0	0	494
13	0	0	0	0	494
14	0	0	0	0	494
15	0	0	0	0	495
0	0	0	0	0	495
1	0	0	0	0	494
2	0	0	0	0	494
3	0	0	0	0	494
4	0	0	0	0	494
5	0	0	0	0	494
6	0	0	0	0	494
7	0	0	0	0	494
8	0	0	0	0	494
9	0	0	0	0	492
10	0	0	0	0	492
11	0	0	0	0	491
12	0	0	0	0	489
13	0	0	0	0	487
14	0	0	0	0	485
15	0	0	0	0	484
0	0	0	0	0	482
1	0	0	0	0	479
2	0	0	0	0	477
3	0	0	0	0	476
4	0	0	0	0	475
5	0	0	0	0	473
6	0	0	0	0	472
7	0	0	0	0	473
8	0	0	0	0	474
9	0	0	0	0	476
10	0	0	0	0	480
11	0	0	0	0	486
12	0	0	0	0	493
13	0	0	0	0	499
14	0	0	0	0	507
15	0	0	0	0	514
0	0	0	0	0	523
1	0	0	0	0	534
2	0	0	0	0	544
3	0	0	0	0	555
4	0	0	0	0	569
5	0	0	0	0	583
6	0	0	0	0	601
7	0	0	0	0	621
8	0	0	0	0	642
9	0	0	0	0	664
10	0	0	0	0	685
11	0	0	0	0	703
12	0	0	0	0	715
13	0	0	0	0	722
14	0	0	0	0	721
15	0	0	0	0	715
0	0	0	0	0	704
1	0	0	0	0	690
2	0	0	0	0	678
3	0	0	0	0	664
4	0	0	0	0	649
5	0	0	0	0	635
6	0	0	0	0	618
7	0	0	0	0	600
8	0	0	0	0	577
9	0	0	0	0	551
10	0	0	0	0	524
11	0	0	0	0	496
12	0	0	0	0	467
13	0	0	0	0	441
14	0	0	0	0	419
15	0	0	0	0	401
0	0	0	0	0	386
1	0	0	0	0	372
2	0	0	0	0	360
3	0	0	0	0	352
4	0	0	0	0	347
5	0	0	0	0	343
6	0	0	0	0	341
7	0	0	0	0	340
8	0	0	0	0	340
9	0	0	0	0	343
10	0	0	0	0	345
11	0	0	0	0	351
12	0	0	0	0	357
13	0	0	0	0	365
14	0	0	0	0	374
15	0	0	0	0	383
0	0	0	0	0	393
1	0	0	0	0	404
2	0	0	0	0	415
3	0	0	0	0	423
4	0	0	0	0	431
5	0	0	0	0	439
6	0	0	0	0	446
7	0	0	0	0	453
8	0	0	0	0	459
9	0	0	0	0	465
10	0	0	0	0	470
11	0	0	0	0	473
12	0	0	0	0	476
13	0	0	0	0	479
14	0	0	0	0	482
15	0	0	0	0	486
0	0	0	0	0	488
1	0	0	0	0	490
2	0	0	0	0	492
3	0	0	0	0	494
4	0	0	0	0	495
5	0	0	0	0	496
6	0	0	0	0	497
7	0	0	0	0	498
8	0	0	0	0	499
9	0	0	0	0	499
10	0	0	0	0	500
11	0	0	0	0	502
12	0	0	0	0	502
13	0	0	0	0	503
14	0	0	0	0	503
15	0	0	0	0	504
0	0	0	0	0	504
1	0	0	0	0	504
2	0	0	0	0	505
3	0	0	0	0	506
4	0	0	0	0	507
5	0	0	0	0	507
6	0	0	0	0	507
7	0	0	0	0	506
8	0	0	0	0	507
9	0	0	0	0	508
10	0	0	0	0	508
11	0	0	0	0	509
12	0	0	0	0	508
13	0	0	0	0	509
14	0	0	0	0	510
15	0	0	0	0	511
0	0	0	0	0	512
1	0	0	0	0	512
2	0	0	0	0	511
3	0	0	0	0	511
4	0	0	0	0	512
5	0	0	0	0	511
6	0	0	0	0	510
7	0	0	0	0	511
8	0	0	0	0	510
9	0	0	0	0	510
10	0	0	0	0	511
11	0	0	0	0	511
12	0	0	0	0	512
13	0	0	0	0	512
14	0	0	0	0	512
15	0	0	0	0	512
0	0	0	0	0	513
1	0	0	0	0	513
2	0	0	0	0	513
3	0	0	0	0	513
4	0	0	0	0	514
5	0	0	0	0	514
6	0	0	0	0	514
7	0	0	0	0	513
8	0	0	0	0	513
9	0	0	0	0	513
10	0	0	0	0	514
11	0	0	0	0	514
12	0	0	0	0	514
13	0	0	0	0	514
14	0	0	0	0	514
15	0	0	0	0	514
0	0	0	0	0	515
1	0	0	0	0	515
2	0	0	0	0	515
3	0	0	0	0	516
4	0	0	0	0	515
5	0	0	0	0	515
6	0	0	0	0	516
7	0	0	0	0	516
8	0	0	0	0	516
9	0	0	0	0	517
10	0	0	0	0	518
11	0	0	0	0	518
12	0	0	0	0	518
13	0	0	0	0	519
14	0	0	0	0	519
15	0	0	0	0	519
0	0	0	0	0	519
1	0	0	0	0	520
2	0	0	0	0	521
3	0	0	0	0	520
4	0	0	0	0	521
5	0	0	0	0	521
6	0	0	0	0	523
7	0	0	0	0	524
8	0	0	0	0	523
9	0	0	0	0	524
10	0	0	0	0	524
11	0	0	0	0	524
12	0	0	0	0	524
13	0	0	0	0	523
14	0	0	0	0	524
15	0	0	0	0	524
0	0	0	0	0	524
1	0	0	0	0	524
2	0	0	0	0	524
3	0	0	0	0	524
4	0	0	0	0	523
5	0	0	0	0	523
6	0	0	0	0	523
7	0	0	0	0	523
8	0	0	0	0	524
9	0	0	0	0	525
10	0	0	0	0	524
11	0	0	0	0	524
12	0	0	0	0	524
13	0	0	0	0	525
14	0	0	0	0	527
15	0	0	0	0	527
0	0	0	0	0	527
1	0	0	0	0	527
2	0	0	0	0	528
3	0	0	0	0	528
4	0	0	0	0	529
5	0	0	0	0	529
6	0	0	0	0	529
7	0	0	0	0	530
8	0	0	0	0	531
9	0	0	0	0	532
10	0	0	0	0	532
11	0	0	0	0	533
12	0	0	0	0	534
13	0	0	0	0	534
14	0	0	0	0	534
15	0	0	0	0	535
0	0	0	0	0	534
1	0	0	0	0	534
2	0	0	0	0	534
3	0	0	0	0	534
4	0	0	0	0	534
5	0	0	0	0	534
6	0	0	0	0	534
7	0	0	0	0	534
8	0	0	0	0	535
9	0	0	0	0	535
10	0	0	0	0	535
11	0	0	0	0	535
12	0	0	0	0	535
13	0	0	0	0	534
14	0	0	0	0	534
15	0	0	0	0	534
0	0	0	0	0	535
1	0	0	0	0	534
2	0	0	0	0	535
3	0	0	0	0	534
4	0	0	0	0	533
5	0	0	0	0	533
6	0	0	0	0	532
7	0	0	0	0	531
8	0	0	0	0	530
9	0	0	0	0	529
10	0	0	0	0	528
11	0	0	0	0	528
12	0	0	0	0	528
13	0	0	0	0	528
14	0	0	0	0	528
15	0	0	0	0	529
0	0	0	0	0	527
1	0	0	0	0	527
2	0	0	0	0	527
3	0	0	0	0	527
4	0	0	0	0	526
5	0	0	0	0	524
6	0	0	0	0	523
7	0	0	0	0	522
8	0	0	0	0	521
9	0	0	0	0	520
10	0	0	0	0	520
11	0	0	0	0	520
12	0	0	0	0	519
13	0	0	0	0	519
14	0	0	0	0	518
15	0	0	0	0	517
0	0	0	0	0	517
1	0	0	0	0	515
2	0	0	0	0	515
3	0	0	0	0	515
4	0	0	0	0	513
5	0	0	0	0	513
6	0	0	0	0	513
7	0	0	0	0	512
8	0	0	0	0	512
9	0	0	0	0	511
10	0	0	0	0	510
11	0	0	0	0	510
12	0	0	0	0	509
13	0	0	0	0	508
14	0	0	0	0	508
15	0	0	0	0	507
0	0	0	0	0	507
1	0	0	0	0	505
2	0	0	0	0	505
3	0	0	0	0	504
4	0	0	0	0	502
5	0	0	0	0	501
6	0	0	0	0	501
7	0	0	0	0	501
8	0	0	0	0	500
9	0	0	0	0	500
10	0	0	0	0	499
11	0	0	0	0	499
12	0	0	0	0	499
13	0	0	0	0	498
14	0	0	0	0	498
15	0	0	0	0	498
0	0	0	0	0	497
1	0	0	0	0	497
2	0	0	0	0	496
3	0	0	0	0	496
4	0	0	0	0	496
5	0	0	0	0	495
6	0	0	0	0	494
7	0	0	0	0	493
8	0	0	0	0	492
9	0	0	0	0	492
10	0	0	0	0	491
11	0	0	0	0	490
12	0	0	0	0	489
13	0	0	0	0	488
14	0	0	0	0	487
15	0	0	0	0	486
0	0	0	0	0	486
1	0	0	0	0	485
2	0	0	0	0	485
3	0	0	0	0	485
4	0	0	0	0	486
5	0	0	0	0	486
6	0	0	0	0	486
7	0	0	0	0	486
8	0	0	0	0	486
9	0	0	0	0	486
10	0	0	0	0	485
11	0	0	0	0	485
12	0	0	0	0	485
13	0	0	0	0	484
14	0	0	0	0	483
15	0	0	0	0	483
0	0	0	0	0	483
1	0	0	0	0	484
2	0	0	0	0	484
3	0	0	0	0	484
4	0	0	0	0	483
5	0	0	0	0	483
6	0	0	0	0	483
7	0	0	0	0	483
8	0	0	0	0	483
9	0	0	0	0	484
10	0	0	0	0	484
11	0	0	0	0	485
12	0	0	0	0	486
13	0	0	0	0	486
14	0	0	0	0	487
15	0	0	0	0	486
0	0	0	0	0	487
1	0	0	0	0	486
2	0	0	0	0	486
3	0	0	0	0	487
4	0	0	0	0	486
5	0	0	0	0	486
6	0	0	0	0	486
7	0	0	0	0	486
8	0	0	0	0	486
9	0	0	0	0	487
10	0	0	0	0	486
11	0	0	0	0	487
12	0	0	0	0	487
13	0	0	0	0	487
14	0	0	0	0	488
15	0	0	0	0	488
0	0	0	0	0	489
1	0	0	0	0	489
2	0	0	0	0	490
3	0	0	0	0	489
4	0	0	0	0	489
5	0	0	0	0	490
6	0	0	0	0	490
7	0	0	0	0	490
8	0	0	0	0	491
9	0	0	0	0	492
10	0	0	0	0	492
11	0	0	0	0	492
12	0	0	0	0	492
13	0	0	0	0	493
14	0	0	0	0	493
15	0	0	0	0	492
0	0	0	0	0	492
1	0	0	0	0	492
2	0	0	0	0	492
3	0	0	0	0	492
4	0	0	0	0	490
5	0	0	0	0	490
6	0	0	0	0	490
7	0	0	0	0	490
8	0	0	0	0	491
9	0	0	0	0	491
10	0	0	0	0	492
11	0	0	0	0	492
12	0	0	0	0	492
13	0	0	0	0	492
14	0	0	0	0	493
15	0	0	0	0	493
0	0	0	0	0	493
1	0	0	0	0	493
2	0	0	0	0	494
3	0	0	0	0	494
4	0	0	0	0	494
5	0	0	0	0	494
6	0	0	0	0	493
7	0	0	0	0	493
8	0	0	0	0	494
9	0	0	0	0	495
10	0	0	0	0	495
11	0	0	0	0	496
12	0	0	0	0	496
13	0	0	0	0	497
14	0	0	0	0	497
15	0	0	0	0	497
0	0	0	0	0	497
1	0	0	0	0	497
2	0	0	0	0	497
3	0	0	0	0	497
4	0	0	0	0	497
5	0	0	0	0	497
6	0	0	0	0	497
7	0	0	0	0	497
8	0	0	0	0	497
9	0	0	0	0	496
10	0	0	0	0	496
11	0	0	0	0	496
12	0	0	0	0	496
13	0	0	0	0	495
14	0	0	0	0	495
15	0	0	0	0	494
0	0	0	0	0	494
1	0	0	0	0	494
2	0	0	0	0	494
3	0	0	0	0	495
4	0	0	0	0	496
5	0	0	0	0	496
6	0	0	0	0	497
7	0	0	0	0	497
8	0	0	0	0	498
9	0	0	0	0	499
10	0	0	0	0	499
11	0	0	0	0	499
12	0	0	0	0	499
13	0	0	0	0	499
14	0	0	0	0	500
15	0	0	0	0	500
0	0	0	0	0	500
1	0	0	0	0	499
2	0	0	0	0	500
3	0	0	0	0	500
4	0	0	0	0	500
5	0	0	0	0	500
6	0	0	0	0	500
7	0	0	0	0	501
8	0	0	0	0	501
9	0	0	0	0	501
10	0	0	0	0	502
11	0	0	0	0	502
12	0	0	0	0	502
13	0	0	0	0	501
14	0	0	0	0	502
15	0	0	0	0	502
0	0	0	0	0	502
1	0	0	0	0	502
2	0	0	0	0	502
3	0	0	0	0	503
4	0	0	0	0	503
5	0	0	0	0	503
6	0	0	0	0	504
7	0	0	0	0	503
8	0	0	0	0	503
9	0	0	0	0	503
10	0	0	0	0	502
11	0	0	0	0	502
12	0	0	0	0	501
13	0	0	0	0	501
14	0	0	0	0	501
15	0	0	0	0	502
0	0	0	0	0	503
1	0	0	0	0	503
2	0	0	0	0	502
3	0	0	0	0	502
4	0	0	0	0	501
5	0	0	0	0	502
6	0	0	0	0	503
7	0	0	0	0	503
8	0	0	0	0	503
9	0	0	0	0	503
10	0	0	0	0	504
11	0	0	0	0	503
12	0	0	0	0	504
13	0	0	0	0	504
14	0	0	0	0	504
15	0	0	0	0	503
0	0	0	0	0	503
1	0	0	0	0	503
2	0	0	0	0	503
3	0	0	0	0	503
4	0	0	0	0	503
5	0	0	0	0	503
6	0	0	0	0	502
7	0	0	0	0	502
8	0	0	0	0	503
9	0	0	0	0	503
10	0	0	0	0	503
11	0	0	0	0	504
12	0	0	0	0	504
13	0	0	0	0	504
14	0	0	0	0	504
15	0	0	0	0	503
0	0	0	0	0	503
1	0	0	0	0	503
2	0	0	0	0	504
3	0	0	0	0	504
4	0	0	0	0	504
5	0	0	0	0	504
6	0	0	0	0	504
7	0	0	0	0	505
8	0	0	0	0	505
9	0	0	0	0	505
10	0	0	0	0	505
11	0	0	0	0	505
12	0	0	0	0	505
13	0	0	0	0	504
14	0	0	0	0	504
15	0	0	0	0	504
0	0	0	0	0	503
1	0	0	0	0	503
2	0	0	0	0	504
3	0	0	0	0	504
4	0	0	0	0	504
5	0	0	0	0	505
6	0	0	0	0	505
7	0	0	0	0	506
8	0	0	0	0	506
9	0	0	0	0	505
10	0	0	0	0	504
11	0	0	0	0	505
12	0	0	0	0	507
13	0	0	0	0	507
14	0	0	0	0	507
15	0	0	0	0	507
0	0	0	0	0	507
1	0	0	0	0	508
2	0	0	0	0	507
3	0	0	0	0	507
4	0	0	0	0	507
5	0	0	0	0	508
6	0	0	0	0	508
7	0	0	0	0	508
8	0	0	0	0	508
9	0	0	0	0	507
10	0	0	0	0	508
11	0	0	0	0	509
12	0	0	0	0	510
13	0	0	0	0	512
14	0	0	0	0	513
15	0	0	0	0	514
0	0	0	0	0	516
1	0	0	0	0	518
2	0	0	0	0	520
3	0	0	0	0	522
4	0	0	0	0	524
5	0	0	0	0	525
6	0	0	0	0	527
7	0	0	0	0	527
8	0	0	0	0	528
9	0	0	0	0	529
10	0	0	0	0	529
11	0	0	0	0	530
12	0	0	0	0	530
13	0	0	0	0	530
14	0	0	0	0	531
15	0	0	0	0	531
0	0	0	0	0	531
1	0	0	0	0	531
2	0	0	0	0	531
3	0	0	0	0	531
4	0	0	0	0	529
5	0	0	0	0	529
6	0	0	0	0	529
7	0	0	0	0	527
8	0	0	0	0	527
9	0	0	0	0	527
10	0	0	0	0	527
11	0	0	0	0	526
12	0	0	0	0	525
13	0	0	0	0	524
14	0	0	0	0	523
15	0	0	0	0	522
0	0	0	0	0	521
1	0	0	0	0	519
2	0	0	0	0	515
3	0	0	0	0	513
4	0	0	0	0	511
5	0	0	0	0	508
6	0	0	0	0	508
7	0	0	0	0	506
8	0	0	0	0	505
9	0	0	0	0	504
10	0	0	0	0	503
11	0	0	0	0	503
12	0	0	0	0	502
13	0	0	0	0	501
14	0	0	0	0	500
15	0	0	0	0	500
0	0	0	0	0	499
1	0	0	0	0	497
2	0	0	0	0	496
3	0	0	0	0	495
4	0	0	0	0	495
5	0	0	0	0	495
6	0	0	0	0	495
7	0	0	0	0	495
8	0	0	0	0	495
9	0	0	0	0	494
10	0	0	0	0	494
11	0	0	0	0	494
12	0	0	0	0	494
13	0	0	0	0	494
14	0	0	0	0	494
15	0	0	0	0	493
0	0	0	0	0	492
1	0	0	0	0	492
2	0	0	0	0	492
3	0	0	0	0	491
4	0	0	0	0	491
5	0	0	0	0	490
6	0	0	0	0	491
7	0	0	0	0	492
8	0	0	0	0	492
9	0	0	0	0	493
10	0	0	0	0	494
11	0	0	0	0	494
12	0	0	0	0	493
13	0	0	0	0	493
14	0	0	0	0	493
15	0	0	0	0	492
0	0	0	0	0	492
1	0	0	0	0	491
2	0	0	0	0	491
3	0	0	0	0	491
4	0	0	0	0	491
5	0	0	0	0	492
6	0	0	0	0	493
7	0	0	0	0	495
8	0	0	0	0	495
9	0	0	0	0	495
10	0	0	0	0	495
11	0	0	0	0	495
12	0	0	0	0	494
13	0	0	0	0	491
14	0	0	0	0	489
15	0	0	0	0	488
0	0	0	0	0	486
1	0	0	0	0	484
2	0	0	0	0	482
3	0	0	0	0	480
4	0	0	0	0	478
5	0	0	0	0	476
6	0	0	0	0	473
7	0	0	0	0	471
8	0	0	0	0	468
9	0	0	0	0	468
10	0	0	0	0	469
11	0	0	0	0	471
12	0	0	0	0	474
13	0	0	0	0	481
14	0	0	0	0	488
15	0	0	0	0	496
0	0	0	0	0	505
1	0	0	0	0	513
2	0	0	0	0	522
3	0	0	0	0	533
4	0	0	0	0	543
5	0	0	0	0	555
6	0	0	0	0	568
7	0	0	0	0	582
8	0	0	0	0	600
9	0	0	0	0	620
10	0	0	0	0	642
11	0	0	0	0	665
12	0	0	0	0	686
13	0	0	0	0	704
14	0	0	0	0	716
15	0	0	0	0	722
0	0	0	0	0	723
1	0	0	0	0	717
2	0	0	0	0	707
3	0	0	0	0	695
4	0	0	0	0	683
5	0	0	0	0	670
6	0	0	0	0	656
7	0	0	0	0	641
8	0	0	0	0	624
9	0	0	0	0	606
10	0	0	0	0	585
11	0	0	0	0	560
12	0	0	0	0	534
13	0	0	0	0	506
14	0	0	0	0	479
15	0	0	0	0	453
0	0	0	0	0	432
1	0	0	0	0	415
2	0	0	0	0	400
3	0	0	0	0	385
4	0	0	0	0	372
5	0	0	0	0	363
6	0	0	0	0	357
7	0	0	0	0	353
8	0	0	0	0	350
9	0	0	0	0	348
10	0	0	0	0	349
11	0	0	0	0	351
12	0	0	0	0	354
13	0	0	0	0	358
14	0	0	0	0	361
15	0	0	0	0	368
0	0	0	0	0	375
1	0	0	0	0	383
2	0	0	0	0	391
3	0	0	0	0	401
4	0	0	0	0	410
5	0	0	0	0	420
6	0	0	0	0	429
7	0	0	0	0	436
8	0	0	0	0	444
9	0	0	0	0	451
10	0	0	0	0	460
11	0	0	0	0	466
12	0	0	0	0	472
13	0	0	0	0	477
14	0	0	0	0	480
15	0	0	0	0	483
0	0	0	0	0	485
1	0	0	0	0	487
2	0	0	0	0	489
3	0	0	0	0	490
4	0	0	0	0	491
5	0	0	0	0	492
6	0	0	0	0	493
7	0	0	0	0	494
8	0	0	0	0	495
9	0	0	0	0	495
10	0	0	0	0	497
11	0	0	0	0	498
12	0	0	0	0	499
13	0	0	0	0	499
14	0	0	0	0	499
15	0	0	0	0	498
0	0	0	0	0	496
1	0	0	0	0	495
2	0	0	0	0	494
3	0	0	0	0	494
4	0	0	0	0	494
5	0	0	0	0	493
6	0	0	0	0	493
7	0	0	0	0	493
8	0	0	0	0	494
9	0	0	0	0	494
10	0	0	0	0	494
11	0	0	0	0	494
12	0	0	0	0	494
13	0	0	0	0	494
14	0	0	0	0	494
15	0	0	0	0	493
0	0	0	0	0	493
1	0	0	0	0	493
2	0	0	0	0	493
3	0	0	0	0	494
4	0	0	0	0	497
5	0	0	0	0	498
6	0	0	0	0	499
7	0	0	0	0	501
8	0	0	0	0	502
9	0	0	0	0	503
10	0	0	0	0	503
11	0	0	0	0	504
12	0	0	0	0	504
13	0	0	0	0	503
14	0	0	0	0	503
15	0	0	0	0	503
0	0	0	0	0	503
1	0	0	0	0	504
2	0	0	0	0	504
3	0	0	0	0	505
4	0	0	0	0	505
5	0	0	0	0	504
6	0	0	0	0	504
7	0	0	0	0	505
8	0	0	0	0	505
9	0	0	0	0	505
10	0	0	0	0	506
11	0	0	0	0	508
12	0	0	0	0	508
13	0	0	0	0	508
14	0	0	0	0	508
15	0	0	0	0	508
0	0	0	0	0	509
1	0	0	0	0	509
2	0	0	0	0	509
3	0	0	0	0	509
4	0	0	0	0	508
5	0	0	0	0	509
6	0	0	0	0	508
7	0	0	0	0	508
8	0	0	0	0	508
9	0	0	0	0	509
10	0	0	0	0	509
11	0	0	0	0	510
12	0	0	0	0	511
13	0	0	0	0	513
14	0	0	0	0	514
15	0	0	0	0	514
0	0	0	0	0	515
1	0	0	0	0	516
2	0	0	0	0	516
3	0	0	0	0	517
4	0	0	0	0	518
5	0	0	0	0	518
6	0	0	0	0	518
7	0	0	0	0	518
8	0	0	0	0	518
9	0	0	0	0	518
10	0	0	0	0	518
11	0	0	0	0	519
12	0	0	0	0	519
13	0	0	0	0	519
14	0	0	0	0	519
15	0	0	0	0	520
0	0	0	0	0	521
1	0	0	0	0	522
2	0	0	0	0	523
3	0	0	0	0	524
4	0	0	0	0	524
5	0	0	0	0	524
6	0	0	0	0	525
7	0	0	0	0	526
8	0	0	0	0	527
9	0	0	0	0	527
10	0	0	0	0	527
11	0	0	0	0	527
12	0	0	0	0	527
13	0	0	0	0	527
14	0	0	0	0	527
15	0	0	0	0	526
0	0	0	0	0	525
1	0	0	0	0	527
2	0	0	0	0	528
3	0	0	0	0	528
4	0	0	0	0	529
5	0	0	0	0	531
6	0	0	0	0	532
7	0	0	0	0	533
8	0	0	0	0	533
9	0	0	0	0	532
10	0	0	0	0	533
11	0	0	0	0	532
12	0	0	0	0	532
13	0	0	0	0	532
14	0	0	0	0	532
15	0	0	0	0	532
0	0	0	0	0	531
1	0	0	0	0	529
2	0	0	0	0	529
3	0	0	0	0	529
4	0	0	0	0	529
5	0	0	0	0	531
6	0	0	0	0	533
7	0	0	0	0	534
8	0	0	0	0	535
9	0	0	0	0	534
10	0	0	0	0	533
11	0	0	0	0	532
12	0	0	0	0	531
13	0	0	0	0	531
14	0	0	0	0	531
15	0	0	0	0	531
0	0	0	0	0	530
1	0	0	0	0	529
2	0	0	0	0	528
3	0	0	0	0	528
4	0	0	0	0	528
5	0	0	0	0	527
6	0	0	0	0	527
7	0	0	0	0	527
8	0	0	0	0	526
9	0	0	0	0	525
10	0	0	0	0	525
11	0	0	0	0	524
12	0	0	0	0	524
13	0	0	0	0	522
14	0	0	0	0	522
15	0	0	0	0	523
0	0	0	0	0	523
1	0	0	0	0	523
2	0	0	0	0	523
3	0	0	0	0	523
4	0	0	0	0	523
5	0	0	0	0	522
6	0	0	0	0	522
7	0	0	0	0	522
8	0	0	0	0	521
9	0	0	0	0	521
10	0	0	0	0	521
11	0	0	0	0	521
12	0	0	0	0	520
13	0	0	0	0	520
14	0	0	0	0	519
15	0	0	0	0	518
0	0	0	0	0	518
1	0	0	0	0	518
2	0	0	0	0	518
3	0	0	0	0	518
4	0	0	0	0	519
5	0	0	0	0	518
6	0	0	0	0	518
7	0	0	0	0	517
8	0	0	0	0	517
9	0	0	0	0	517
10	0	0	0	0	516
11	0	0	0	0	515
12	0	0	0	0	514
13	0	0	0	0	513
14	0	0	0	0	512
15	0	0	0	0	511
0	0	0	0	0	511
1	0	0	0	0	509
2	0	0	0	0	509
3	0	0	0	0	508
4	0	0	0	0	508
5	0	0	0	0	508
6	0	0	0	0	508
7	0	0	0	0	507
8	0	0	0	0	507
9	0	0	0	0	506
10	0	0	0	0	506
11	0	0	0	0	504
12	0	0	0	0	503
13	0	0	0	0	501
14	0	0	0	0	500
15	0	0	0	0	499
0	0	0	0	0	499
1	0	0	0	0	498
2	0	0	0	0	498
3	0	0	0	0	497
4	0	0	0	0	497
5	0	0	0	0	497
6	0	0	0	0	497
7	0	0	0	0	497
8	0	0	0	0	497
9	0	0	0	0	497
10	0	0	0	0	496
11	0	0	0	0	495
12	0	0	0	0	494
13	0	0	0	0	493
14	0	0	0	0	492
15	0	0	0	0	492
0	0	0	0	0	492
1	0	0	0	0	492
2	0	0	0	0	492
3	0	0	0	0	491
4	0	0	0	0	491
5	0	0	0	0	491
6	0	0	0	0	490
7	0	0	0	0	490
8	0	0	0	0	490
9	0	0	0	0	489
10	0	0	0	0	490
11	0	0	0	0	490
12	0	0	0	0	490
13	0	0	0	0	490
14	0	0	0	0	489
15	0	0	0	0	489
0	0	0	0	0	488
1	0	0	0	0	487
2	0	0	0	0	486
3	0	0	0	0	484
4	0	0	0	0	484
5	0	0	0	0	486
6	0	0	0	0	488
7	0	0	0	0	491
8	0	0	0	0	492
9	0	0	0	0	495
10	0	0	0	0	497
11	0	0	0	0	499
12	0	0	0	0	500
13	0	0	0	0	500
14	0	0	0	0	500
15	0	0	0	0	499
0	0	0	0	0	499
1	0	0	0	0	499
2	0	0	0	0	498
3	0	0	0	0	497
4	0	0	0	0	498
5	0	0	0	0	497
6	0	0	0	0	495
7	0	0	0	0	494
8	0	0	0	0	494
9	0	0	0	0	495
10	0	0	0	0	495
11	0	0	0	0	496
12	0	0	0	0	496
13	0	0	0	0	496
14	0	0	0	0	495
15	0	0	0	0	495
0	0	0	0	0	495
1	0	0	0	0	494
2	0	0	0	0	494
3	0	0	0	0	493
4	0	0	0	0	493
5	0	0	0	0	493
6	0	0	0	0	492
7	0	0	0	0	491
8	0	0	0	0	490
9	0	0	0	0	489
10	0	0	0	0	491
11	0	0	0	0	492
12	0	0	0	0	493
13	0	0	0	0	494
14	0	0	0	0	493
15	0	0	0	0	492
0	0	0	0	0	492
1	0	0	0	0	492
2	0	0	0	0	492
3	0	0	0	0	491
4	0	0	0	0	491
5	0	0	0	0	491
6	0	0	0	0	491
7	0	0	0	0	492
8	0	0	0	0	492
9	0	0	0	0	492
10	0	0	0	0	492
11	0	0	0	0	492
12	0	0	0	0	491
13	0	0	0	0	490
14	0	0	0	0	490
15	0	0	0	0	489
0	0	0	0	0	488
1	0	0	0	0	488
2	0	0	0	0	490
3	0	0	0	0	492
4	0	0	0	0	494
5	0	0	0	0	496
6	0	0	0	0	496
7	0	0	0	0	496
8	0	0	0	0	496
9	0	0	0	0	497
10	0	0	0	0	499
11	0	0	0	0	499
12	0	0	0	0	500
13	0	0	0	0	501
14	0	0	0	0	502
15	0	0	0	0	503
0	0	0	0	0	503
1	0	0	0	0	504
2	0	0	0	0	505
3	0	0	0	0	504
4	0	0	0	0	505
5	0	0	0	0	506
6	0	0	0	0	505
7	0	0	0	0	505
8	0	0	0	0	503
9	0	0	0	0	502
10	0	0	0	0	500
11	0	0	0	0	500
12	0	0	0	0	500
13	0	0	0	0	500
14	0	0	0	0	502
15	0	0	0	0	502
0	0	0	0	0	503
1	0	0	0	0	503
2	0	0	0	0	502
3	0	0	0	0	502
4	0	0	0	0	503
5	0	0	0	0	503
6	0	0	0	0	502
7	0	0	0	0	501
8	0	0	0	0	500
9	0	0	0	0	499
10	0	0	0	0	499
11	0	0	0	0	499
12	0	0	0	0	499
13	0	0	0	0	498
14	0	0	0	0	498
15	0	0	0	0	497
0	0	0	0	0	498
1	0	0	0	0	498
2	0	0	0	0	499
3	0	0	0	0	499
4	0	0	0	0	498
5	0	0	0	0	496
6	0	0	0	0	495
7	0	0	0	0	495
8	0	0	0	0	494
9	0	0	0	0	494
10	0	0	0	0	495
11	0	0	0	0	496
12	0	0	0	0	498
13	0	0	0	0	498
14	0	0	0	0	499
15	0	0	0	0	500
0	0	0	0	0	502
1	0	0	0	0	502
2	0	0	0	0	502
3	0	0	0	0	502
4	0	0	0	0	502
5	0	0	0	0	502
6	0	0	0	0	503
7	0	0	0	0	503
8	0	0	0	0	504
9	0	0	0	0	504
10	0	0	0	0	502
11	0	0	0	0	502
12	0	0	0	0	501
13	0	0	0	0	501
14	0	0	0	0	502
15	0	0	0	0	503
0	0	0	0	0	505
1	0	0	0	0	507
2	0	0	0	0	507
3	0	0	0	0	505
4	0	0	0	0	505
5	0	0	0	0	505
6	0	0	0	0	505
7	0	0	0	0	505
8	0	0	0	0	505
9	0	0	0	0	504
10	0	0	0	0	507
11	0	0	0	0	507
12	0	0	0	0	506
13	0	0	0	0	506
14	0	0	0	0	504
15	0	0	0	0	503
0	0	0	0	0	503
1	0	0	0	0	503
2	0	0	0	0	502
3	0	0	0	0	501
4	0	0	0	0	502
5	0	0	0	0	502
6	0	0	0	0	503
7	0	0	0	0	503
8	0	0	0	0	503
9	0	0	0	0	503
10	0	0	0	0	502
11	0	0	0	0	502
12	0	0	0	0	502
13	0	0	0	0	501
14	0	0	0	0	501
15	0	0	0	0	502
0	0	0	0	0	503
1	0	0	0	0	504
2	0	0	0	0	504
3	0	0	0	0	505
4	0	0	0	0	505
5	0	0	0	0	506
6	0	0	0	0	505
7	0	0	0	0	504
8	0	0	0	0	505
9	0	0	0	0	505
10	0	0	0	0	505
11	0	0	0	0	505
12	0	0	0	0	505
13	0	0	0	0	505
14	0	0	0	0	505
15	0	0	0	0	505
0	0	0	0	0	505
1	0	0	0	0	504
2	0	0	0	0	504
3	0	0	0	0	504
4	0	0	0	0	504
5	0	0	0	0	506
6	0	0	0	0	506
7	0	0	0	0	507
8	0	0	0	0	508
9	0	0	0	0	509
10	0	0	0	0	509
11	0	0	0	0	508
12	0	0	0	0	507
13	0	0	0	0	507
14	0	0	0	0	507
15	0	0	0	0	506
0	0	0	0	0	505
1	0	0	0	0	506
2	0	0	0	0	507
3	0	0	0	0	507
4	0	0	0	0	507
5	0	0	0	0	507
6	0	0	0	0	507
7	0	0	0	0	507
8	0	0	0	0	507
9	0	0	0	0	508
10	0	0	0	0	508
11	0	0	0	0	510
12	0	0	0	0	512
13	0	0	0	0	516
14	0	0	0	0	519
15	0	0	0	0	521
0	0	0	0	0	523
1	0	0	0	0	524
2	0	0	0	0	524
3	0	0	0	0	525
4	0	0	0	0	526
5	0	0	0	0	527
6	0	0	0	0	527
7	0	0	0	0	527
8	0	0	0	0	526
9	0	0	0	0	527
10	0	0	0	0	527
11	0	0	0	0	529
12	0	0	0	0	530
13	0	0	0	0	531
14	0	0	0	0	529
15	0	0	0	0	528
0	0	0	0	0	527
1	0	0	0	0	526
2	0	0	0	0	526
3	0	0	0	0	525
4	0	0	0	0	524
5	0	0	0	0	523
6	0	0	0	0	523
7	0	0	0	0	523
8	0	0	0	0	523
9	0	0	0	0	522
10	0	0	0	0	521
11	0	0	0	0	520
12	0	0	0	0	519
13	0	0	0	0	517
14	0	0	0	0	515
15	0	0	0	0	513
0	0	0	0	0	511
1	0	0	0	0	509
2	0	0	0	0	508
3	0	0	0	0	507
4	0	0	0	0	505
5	0	0	0	0	504
6	0	0	0	0	503
7	0	0	0	0	503
8	0	0	0	0	503
9	0	0	0	0	502
10	0	0	0	0	501
11	0	0	0	0	499
12	0	0	0	0	498
13	0	0	0	0	498
14	0	0	0	0	497
15	0	0	0	0	496
0	0	0	0	0	495
1	0	0	0	0	494
2	0	0	0	0	494
3	0	0	0	0	494
4	0	0	0	0	493
5	0	0	0	0	493
6	0	0	0	0	493
7	0	0	0	0	493
8	0	0	0	0	492
9	0	0	0	0	493
10	0	0	0	0	495
11	0	0	0	0	496
12	0	0	0	0	496
13	0	0	0	0	496
14	0	0	0	0	497
15	0	0	0	0	496
0	0	0	0	0	495
1	0	0	0	0	495
2	0	0	0	0	492
3	0	0	0	0	491
4	0	0	0	0	490
5	0	0	0	0	491
6	0	0	0	0	492
7	0	0	0	0	491
8	0	0	0	0	492
9	0	0	0	0	492
10	0	0	0	0	492
11	0	0	0	0	492
12	0	0	0	0	493
13	0	0	0	0	493
14	0	0	0	0	494
15	0	0	0	0	494
0	0	0	0	0	495
1	0	0	0	0	493
2	0	0	0	0	491
3	0	0	0	0	490
4	0	0	0	0	489
5	0	0	0	0	491
6	0	0	0	0	493
7	0	0	0	0	494
8	0	0	0	0	493
9	0	0	0	0	492
10	0	0	0	0	490
11	0	0	0	0	487
12	0	0	0	0	485
13	0	0	0	0	483
14	0	0	0	0	481
15	0	0	0	0	478
0	0	0	0	0	476
1	0	0	0	0	474
2	0	0	0	0	472
3	0	0	0	0	471
4	0	0	0	0	470
5	0	0	0	0	469
6	0	0	0	0	471
7	0	0	0	0	472
8	0	0	0	0	474
9	0	0	0	0	478
10	0	0	0	0	485
11	0	0	0	0	492
12	0	0	0	0	499
13	0	0	0	0	506
14	0	0	0	0	515
15	0	0	0	0	524
0	0	0	0	0	535
1	0	0	0	0	547
2	0	0	0	0	559
3	0	0	0	0	574
4	0	0	0	0	587
5	0	0	0	0	605
6	0	0	0	0	625
7	0	0	0	0	646
8	0	0	0	0	667
9	0	0	0	0	687
10	0	0	0	0	703
11	0	0	0	0	714
12	0	0	0	0	719
13	0	0	0	0	715
14	0	0	0	0	706
15	0	0	0	0	692
0	0	0	0	0	677
1	0	0	0	0	665
2	0	0	0	0	653
3	0	0	0	0	639
4	0	0	0	0	623
5	0	0	0	0	605
6	0	0	0	0	585
7	0	0	0	0	563
8	0	0	0	0	538
9	0	0	0	0	510
10	0	0	0	0	481
11	0	0	0	0	453
12	0	0	0	0	428
13	0	0	0	0	407
14	0	0	0	0	391
15	0	0	0	0	376
0	0	0	0	0	360
1	0	0	0	0	350
2	0	0	0	0	342
3	0	0	0	0	338
4	0	0	0	0	335
5	0	0	0	0	333
6	0	0	0	0	333
7	0	0	0	0	334
8	0	0	0	0	335
9	0	0	0	0	339
10	0	0	0	0	344
11	0	0	0	0	352
12	0	0	0	0	361
13	0	0	0	0	371
14	0	0	0	0	379
15	0	0	0	0	389
0	0	0	0	0	399
1	0	0	0	0	408
2	0	0	0	0	417
3	0	0	0	0	426
4	0	0	0	0	435
5	0	0	0	0	445
6	0	0	0	0	454
7	0	0	0	0	462
8	0	0	0	0	469
9	0	0	0	0	475
10	0	0	0	0	480
11	0	0	0	0	483
12	0	0	0	0	487
13	0	0	0	0	488
14	0	0	0	0	490
15	0	0	0	0	491
0	0	0	0	0	493
1	0	0	0	0	495
2	0	0	0	0	497
3	0	0	0	0	499
4	0	0	0	0	502
5	0	0	0	0	503
6	0	0	0	0	504
7	0	0	0	0	505
8	0	0	0	0	504
9	0	0	0	0	505
10	0	0	0	0	506
11	0	0	0	0	507
12	0	0	0	0	508
13	0	0	0	0	509
14	0	0	0	0	508
15	0	0	0	0	507
0	0	0	0	0	507
1	0	0	0	0	507
2	0	0	0	0	507
3	0	0	0	0	509
4	0	0	0	0	510
5	0	0	0	0	511
6	0	0	0	0	512
7	0	0	0	0	513
8	0	0	0	0	513
9	0	0	0	0	513
10	0	0	0	0	512
11	0	0	0	0	512
12	0	0	0	0	511
13	0	0	0	0	512
14	0	0	0	0	513
15	0	0	0	0	514
0	0	0	0	0	515
1	0	0	0	0	515
2	0	0	0	0	516
3	0	0	0	0	516
4	0	0	0	0	516
5	0	0	0	0	516
6	0	0	0	0	515
7	0	0	0	0	516
8	0	0	0	0	515
9	0	0	0	0	515
10	0	0	0	0	513
11	0	0	0	0	513
12	0	0	0	0	515
13	0	0	0	0	516
14	0	0	0	0	516
15	0	0	0	0	517
0	0	0	0	0	515
1	0	0	0	0	514
2	0	0	0	0	512
3	0	0	0	0	512
4	0	0	0	0	513
5	0	0	0	0	514
6	0	0	0	0	516
7	0	0	0	0	518
8	0	0	0	0	519
9	0	0	0	0	519
10	0	0	0	0	519
11	0	0	0	0	520
12	0	0	0	0	521
13	0	0	0	0	523
14	0	0	0	0	523
15	0	0	0	0	522
0	0	0	0	0	521
1	0	0	0	0	520
2	0	0	0	0	519
3	0	0	0	0	519
4	0	0	0	0	518
5	0	0	0	0	519
6	0	0	0	0	520
7	0	0	0	0	520
8	0	0	0	0	521
9	0	0	0	0	521
10	0	0	0	0	522
11	0	0	0	0	523
12	0	0	0	0	523
13	0	0	0	0	523
14	0	0	0	0	523
15	0	0	0	0	523
0	0	0	0	0	524
1	0	0	0	0	525
2	0	0	0	0	525
3	0	0	0	0	526
4	0	0	0	0	527
5	0	0	0	0	527
6	0	0	0	0	527
7	0	0	0	0	527
8	0	0	0	0	526
9	0	0	0	0	524
10	0	0	0	0	522
11	0	0	0	0	521
12	0	0	0	0	520
13	0	0	0	0	520
14	0	0	0	0	522
15	0	0	0	0	525
0	0	0	0	0	527
1	0	0	0	0	528
2	0	0	0	0	528
3	0	0	0	0	529
4	0	0	0	0	530
5	0	0	0	0	530
6	0	0	0	0	529
7	0	0	0	0	528
8	0	0	0	0	529
9	0	0	0	0	529
10	0	0	0	0	529
11	0	0	0	0	530
12	0	0	0	0	530
13	0	0	0	0	530
14	0	0	0	0	530
15	0	0	0	0	530
0	0	0	0	0	530
1	0	0	0	0	529
2	0	0	0	0	530
3	0	0	0	0	529
4	0	0	0	0	529
5	0	0	0	0	529
6	0	0	0	0	529
7	0	0	0	0	529
8	0	0	0	0	530
9	0	0	0	0	531
10	0	0	0	0	531
11	0	0	0	0	530
12	0	0	0	0	531
13	0	0	0	0	533
14	0	0	0	0	533
15	0	0	0	0	532
0	0	0	0	0	532
1	0	0	0	0	534
2	0	0	0	0	536
3	0	0	0	0	536
4	0	0	0	0	537
5	0	0	0	0	537
6	0	0	0	0	537
7	0	0	0	0	536
8	0	0	0	0	536
9	0	0	0	0	536
10	0	0	0	0	535
11	0	0	0	0	532
12	0	0	0	0	528
13	0	0	0	0	528
14	0	0	0	0	530
15	0	0	0	0	533
0	0	0	0	0	536
1	0	0	0	0	536
2	0	0	0	0	535
3	0	0	0	0	534
4	0	0	0	0	534
5	0	0	0	0	533
6	0	0	0	0	531
7	0	0	0	0	531
8	0	0	0	0	531
9	0	0	0	0	531
10	0	0	0	0	530
11	0	0	0	0	528
12	0	0	0	0	528
13	0	0	0	0	528
14	0	0	0	0	528
15	0	0	0	0	529
0	0	0	0	0	529
1	0	0	0	0	528
2	0	0	0	0	527
3	0	0	0	0	526
4	0	0	0	0	525
5	0	0	0	0	524
6	0	0	0	0	522
7	0	0	0	0	522
8	0	0	0	0	522
9	0	0	0	0	521
10	0	0	0	0	519
11	0	0	0	0	517
12	0	0	0	0	515
13	0	0	0	0	513
14	0	0	0	0	515
15	0	0	0	0	515
0	0	0	0	0	516
1	0	0	0	0	515
2	0	0	0	0	515
3	0	0	0	0	515
4	0	0	0	0	515
5	0	0	0	0	513
6	0	0	0	0	513
7	0	0	0	0	513
8	0	0	0	0	512
9	0	0	0	0	511
10	0	0	0	0	509
11	0	0	0	0	507
12	0	0	0	0	506
13	0	0	0	0	507
14	0	0	0	0	507
15	0	0	0	0	507
0	0	0	0	0	507
1	0	0	0	0	505
2	0	0	0	0	504
3	0	0	0	0	504
4	0	0	0	0	504
5	0	0	0	0	503
6	0	0	0	0	502
7	0	0	0	0	501
8	0	0	0	0	501
9	0	0	0	0	501
10	0	0	0	0	500
11	0	0	0	0	500
12	0	0	0	0	500
13	0	0	0	0	499
14	0	0	0	0	496
15	0	0	0	0	494
0	0	0	0	0	492
1	0	0	0	0	492
2	0	0	0	0	492
3	0	0	0	0	492
4	0	0	0	0	493
5	0	0	0	0	493
6	0	0	0	0	494
7	0	0	0	0	494
8	0	0	0	0	493
9	0	0	0	0	494
10	0	0	0	0	494
11	0	0	0	0	494
12	0	0	0	0	493
13	0	0	0	0	492
14	0	0	0	0	490
15	0	0	0	0	488
0	0	0	0	0	488
1	0	0	0	0	487
2	0	0	0	0	485
3	0	0	0	0	484
4	0	0	0	0	483
5	0	0	0	0	483
6	0	0	0	0	483
7	0	0	0	0	483
8	0	0	0	0	483
9	0	0	0	0	484
10	0	0	0	0	486
11	0	0	0	0	487
12	0	0	0	0	487
13	0	0	0	0	488
14	0	0	0	0	487
15	0	0	0	0	487
0	0	0	0	0	488
1	0	0	0	0	487
2	0	0	0	0	488
3	0	0	0	0	488
4	0	0	0	0	487
5	0	0	0	0	487
6	0	0	0	0	487
7	0	0	0	0	486
8	0	0	0	0	483
9	0	0	0	0	482
10	0	0	0	0	481
11	0	0	0	0	481
12	0	0	0	0	483
13	0	0	0	0	484
14	0	0	0	0	486
15	0	0	0	0	485
0	0	0	0	0	486
1	0	0	0	0	486
2	0	0	0	0	486
3	0	0	0	0	487
4	0	0	0	0	486
5	0	0	0	0	487
6	0	0	0	0	487
7	0	0	0	0	487
8	0	0	0	0	488
9	0	0	0	0	489
10	0	0	0	0	490
11	0	0	0	0	491
12	0	0	0	0	490
13	0	0	0	0	489
14	0	0	0	0	488
15	0	0	0	0	488
0	0	0	0	0	487
1	0	0	0	0	486
2	0	0	0	0	487
3	0	0	0	0	487
4	0	0	0	0	489
5	0	0	0	0	490
6	0	0	0	0	491
7	0	0	0	0	491
8	0	0	0	0	491
9	0	0	0	0	492
10	0	0	0	0	492
11	0	0	0	0	492
12	0	0	0	0	493
13	0	0	0	0	494
14	0	0	0	0	495
15	0	0	0	0	494
0	0	0	0	0	493
1	0	0	0	0	491
2	0	0	0	0	488
3	0	0	0	0	487
4	0	0	0	0	487
5	0	0	0	0	488
6	0	0	0	0	491
7	0	0	0	0	493
8	0	0	0	0	494
9	0	0	0	0	495
10	0	0	0	0	494
11	0	0	0	0	494
12	0	0	0	0	494
13	0	0	0	0	495
14	0	0	0	0	494
15	0	0	0	0	494
0	0	0	0	0	494
1	0	0	0	0	494
2	0	0	0	0	493
3	0	0	0	0	493
4	0	0	0	0	494
5	0	0	0	0	495
6	0	0	0	0	495
7	0	0	0	0	495
8	0	0	0	0	494
9	0	0	0	0	493
10	0	0	0	0	492
11	0	0	0	0	493
12	0	0	0	0	494
13	0	0	0	0	495
14	0	0	0	0	497
15	0	0	0	0	497
0	0	0	0	0	497
1	0	0	0	0	497
2	0	0	0	0	497
3	0	0	0	0	497
4	0	0	0	0	497
5	0	0	0	0	497
6	0	0	0	0	497
7	0	0	0	0	496
8	0	0	0	0	496
9	0	0	0	0	497
10	0	0	0	0	499
11	0	0	0	0	499
12	0	0	0	0	500
13	0	0	0	0	500
14	0	0	0	0	500
15	0	0	0	0	498
0	0	0	0	0	498
1	0	0	0	0	497
2	0	0	0	0	497
3	0	0	0	0	499
4	0	0	0	0	499
5	0	0	0	0	498
6	0	0	0	0	498
7	0	0	0	0	499
8	0	0	0	0	500
9	0	0	0	0	501
10	0	0	0	0	500
11	0	0	0	0	500
12	0	0	0	0	500
13	0	0	0	0	499
14	0	0	0	0	499
15	0	0	0	0	498
0	0	0	0	0	498
1	0	0	0	0	498
2	0	0	0	0	498
3	0	0	0	0	497
4	0	0	0	0	497
5	0	0	0	0	496
6	0	0	0	0	496
7	0	0	0	0	496
8	0	0	0	0	496
9	0	0	0	0	497
10	0	0	0	0	499
11	0	0	0	0	500
12	0	0	0	0	501
13	0	0	0	0	500
14	0	0	0	0	499
15	0	0	0	0	499
0	0	0	0	0	498
1	0	0	0	0	498
2	0	0	0	0	499
3	0	0	0	0	500
4	0	0	0	0	500
5	0	0	0	0	499
6	0	0	0	0	499
7	0	0	0	0	498
8	0	0	0	0	498
9	0	0	0	0	498
10	0	0	0	0	499
11	0	0	0	0	500
12	0	0	0	0	501
13	0	0	0	0	500
14	0	0	0	0	500
15	0	0	0	0	500
0	0	0	0	0	500
1	0	0	0	0	500
2	0	0	0	0	501
3	0	0	0	0	501
4	0	0	0	0	501
5	0	0	0	0	499
6	0	0	0	0	499
7	0	0	0	0	498
8	0	0	0	0	498
9	0	0	0	0	498
10	0	0	0	0	498
11	0	0	0	0	500
12	0	0	0	0	503
13	0	0	0	0	504
14	0	0	0	0	503
15	0	0	0	0	502
0	0	0	0	0	502
1	0	0	0	0	502
2	0	0	0	0	501
3	0	0	0	0	501
4	0	0	0	0	500
5	0	0	0	0	500
6	0	0	0	0	502
7	0	0	0	0	502
8	0	0	0	0	502
9	0	0	0	0	504
10	0	0	0	0	504
11	0	0	0	0	505
12	0	0	0	0	507
13	0	0	0	0	508
14	0	0	0	0	508
15	0	0	0	0	508
0	0	0	0	0	508
1	0	0	0	0	507
2	0	0	0	0	507
3	0	0	0	0	507
4	0	0	0	0	507
5	0	0	0	0	507
6	0	0	0	0	507
7	0	0	0	0	507
8	0	0	0	0	507
9	0	0	0	0	506
10	0	0	0	0	505
11	0	0	0	0	505
12	0	0	0	0	505
13	0	0	0	0	506
14	0	0	0	0	506
15	0	0	0	0	507
0	0	0	0	0	507
1	0	0	0	0	506
2	0	0	0	0	506
3	0	0	0	0	505
4	0	0	0	0	504
5	0	0	0	0	504
6	0	0	0	0	504
7	0	0	0	0	505
8	0	0	0	0	506
9	0	0	0	0	507
10	0	0	0	0	508
11	0	0	0	0	508
12	0	0	0	0	508
13	0	0	0	0	508
14	0	0	0	0	508
15	0	0	0	0	508
0	0	0	0	0	509
1	0	0	0	0	509
2	0	0	0	0	509
3	0	0	0	0	511
4	0	0	0	0	511
5	0	0	0	0	512
6	0	0	0	0	513
7	0	0	0	0	515
8	0	0	0	0	517
9	0	0	0	0	518
10	0	0	0	0	520
11	0	0	0	0	523
12	0	0	0	0	525
13	0	0	0	0	527
14	0	0	0	0	529
15	0	0	0	0	529
0	0	0	0	0	530
1	0	0	0	0	529
2	0	0	0	0	530
3	0	0	0	0	530
4	0	0	0	0	531
5	0	0	0	0	532
6	0	0	0	0	532
7	0	0	0	0	532
8	0	0	0	0	530
9	0	0	0	0	528
10	0	0	0	0	526
11	0	0	0	0	524
12	0	0	0	0	524
13	0	0	0	0	525
14	0	0	0	0	526
15	0	0	0	0	526
0	0	0	0	0	524
1	0	0	0	0	522
2	0	0	0	0	521
3	0	0	0	0	520
4	0	0	0	0	519
5	0	0	0	0	519
6	0	0	0	0	521
7	0	0	0	0	521
8	0	0	0	0	519
9	0	0	0	0	518
10	0	0	0	0	515
11	0	0	0	0	512
12	0	0	0	0	510
13	0	0	0	0	508
14	0	0	0	0	508
15	0	0	0	0	507
0	0	0	0	0	507
1	0	0	0	0	505
2	0	0	0	0	503
3	0	0	0	0	502
4	0	0	0	0	502
5	0	0	0	0	502
6	0	0	0	0	502
7	0	0	0	0	500
8	0	0	0	0	500
9	0	0	0	0	499
10	0	0	0	0	497
11	0	0	0	0	496
12	0	0	0	0	496
13	0	0	0	0	497
14	0	0	0	0	497
15	0	0	0	0	496
0	0	0	0	0	495
1	0	0	0	0	494
2	0	0	0	0	494
3	0	0	0	0	495
4	0	0	0	0	496
5	0	0	0	0	496
6	0	0	0	0	496
7	0	0	0	0	496
8	0	0	0	0	494
9	0	0	0	0	493
10	0	0	0	0	493
11	0	0	0	0	492
12	0	0	0	0	494
13	0	0	0	0	494
14	0	0	0	0	493
15	0	0	0	0	494
0	0	0	0	0	494
1	0	0	0	0	493
2	0	0	0	0	493
3	0	0	0	0	493
4	0	0	0	0	493
5	0	0	0	0	494
6	0	0	0	0	494
7	0	0	0	0	493
8	0	0	0	0	493
9	0	0	0	0	492
10	0	0	0	0	491
11	0	0	0	0	490
12	0	0	0	0	489
13	0	0	0	0	488
14	0	0	0	0	488
15	0	0	0	0	489
0	0	0	0	0	490
1	0	0	0	0	490
2	0	0	0	0	490
3	0	0	0	0	489
4	0	0	0	0	488
5	0	0	0	0	486
6	0	0	0	0	483
7	0	0	0	0	481
8	0	0	0	0	479
9	0	0	0	0	477
10	0	0	0	0	475
11	0	0	0	0	473
12	0	0	0	0	472
13	0	0	0	0	470
14	0	0	0	0	468
15	0	0	0	0	470
0	0	0	0	0	472
1	0	0	0	0	476
2	0	0	0	0	479
3	0	0	0	0	484
4	0	0	0	0	491
5	0	0	0	0	498
6	0	0	0	0	505
7	0	0	0	0	512
8	0	0	0	0	521
9	0	0	0	0	529
10	0	0	0	0	538
11	0	0	0	0	548
12	0	0	0	0	559
13	0	0	0	0	573
14	0	0	0	0	588
15	0	0	0	0	608
0	0	0	0	0	631
1	0	0	0	0	654
2	0	0	0	0	675
3	0	0	0	0	697
4	0	0	0	0	712
5	0	0	0	0	723
6	0	0	0	0	726
7	0	0	0	0	722
8	0	0	0	0	712
9	0	0	0	0	697
10	0	0	0	0	682
11	0	0	0	0	668
12	0	0	0	0	655
13	0	0	0	0	641
14	0	0	0	0	626
15	0	0	0	0	610
0	0	0	0	0	590
1	0	0	0	0	567
2	0	0	0	0	540
3	0	0	0	0	511
4	0	0	0	0	480
5	0	0	0	0	451
6	0	0	0	0	428
7	0	0	0	0	408
8	0	0	0	0	392
9	0	0	0	0	378
10	0	0	0	0	365
11	0	0	0	0	355
12	0	0	0	0	349
13	0	0	0	0	345
14	0	0	0	0	343
15	0	0	0	0	341
0	0	0	0	0	341
1	0	0	0	0	342
2	0	0	0	0	344
3	0	0	0	0	348
4	0	0	0	0	354
5	0	0	0	0	361
6	0	0	0	0	369
7	0	0	0	0	378
8	0	0	0	0	387
9	0	0	0	0	397
10	0	0	0	0	408
11	0	0	0	0	417
12	0	0	0	0	426
13	0	0	0	0	433
14	0	0	0	0	440
15	0	0	0	0	449
0	0	0	0	0	457
1	0	0	0	0	463
2	0	0	0	0	468
3	0	0	0	0	473
4	0	0	0	0	478
5	0	0	0	0	483
6	0	0	0	0	486
7	0	0	0	0	490
8	0	0	0	0	493
9	0	0	0	0	495
10	0	0	0	0	497
11	0	0	0	0	497
12	0	0	0	0	498
13	0	0	0	0	499
14	0	0	0	0	499
15	0	0	0	0	499
0	0	0	0	0	499
1	0	0	0	0	499
2	0	0	0	0	499
3	0	0	0	0	500
4	0	0	0	0	501
5	0	0	0	0	501
6	0	0	0	0	502
7	0	0	0	0	503
8	0	0	0	0	504
9	0	0	0	0	505
10	0	0	0	0	506
11	0	0	0	0	507
12	0	0	0	0	507
13	0	0	0	0	508
14	0	0	0	0	508
15	0	0	0	0	507
0	0	0	0	0	507
1	0	0	0	0	509
2	0	0	0	0	509
3	0	0	0	0	510
4	0	0	0	0	511
5	0	0	0	0	512
6	0	0	0	0	513
7	0	0	0	0	513
8	0	0	0	0	514
9	0	0	0	0	514
10	0	0	0	0	512
11	0	0	0	0	512
12	0	0	0	0	512
13	0	0	0	0	513
14	0	0	0	0	513
15	0	0	0	0	513
0	0	0	0	0	513
1	0	0	0	0	513
2	0	0	0	0	513
3	0	0	0	0	514
4	0	0	0	0	514
5	0	0	0	0	514
6	0	0	0	0	514
7	0	0	0	0	514
8	0	0	0	0	513
9	0	0	0	0	512
10	0	0	0	0	512
11	0	0	0	0	512
12	0	0	0	0	512
13	0	0	0	0	513
14	0	0	0	0	513
15	0	0	0	0	514
0	0	0	0	0	514
1	0	0	0	0	514
2	0	0	0	0	514
3	0	0	0	0	515
4	0	0	0	0	516
5	0	0	0	0	517
6	0	0	0	0	518
7	0	0	0	0	517
8	0	0	0	0	517
9	0	0	0	0	516
10	0	0	0	0	515
11	0	0	0	0	515
12	0	0	0	0	514
13	0	0	0	0	514
14	0	0	0	0	513
15	0	0	0	0	514
0	0	0	0	0	515
1	0	0	0	0	516
2	0	0	0	0	517
3	0	0	0	0	518
4	0	0	0	0	519
5	0	0	0	0	519
6	0	0	0	0	519
7	0	0	0	0	520
8	0	0	0	0	523
9	0	0	0	0	524
10	0	0	0	0	525
11	0	0	0	0	525
12	0	0	0	0	525
13	0	0	0	0	526
14	0	0	0	0	525
15	0	0	0	0	524
0	0	0	0	0	523
1	0	0	0	0	522
2	0	0	0	0	522
3	0	0	0	0	522
4	0	0	0	0	523
5	0	0	0	0	524
6	0	0	0	0	524
7	0	0	0	0	524
8	0	0	0	0	523
9	0	0	0	0	524
10	0	0	0	0	525
11	0	0	0	0	525
12	0	0	0	0	527
13	0	0	0	0	526
14	0	0	0	0	526
15	0	0	0	0	526
0	0	0	0	0	527
1	0	0	0	0	528
2	0	0	0	0	528
3	0	0	0	0	528
4	0	0	0	0	528
5	0	0	0	0	528
6	0	0	0	0	529
7	0	0	0	0	528
8	0	0	0	0	528
9	0	0	0	0	527
10	0	0	0	0	527
11	0	0	0	0	529
12	0	0	0	0	531
13	0	0	0	0	533
14	0	0	0	0	533
15	0	0	0	0	534
0	0	0	0	0	533
1	0	0	0	0	533
2	0	0	0	0	535
3	0	0	0	0	535
4	0	0	0	0	536
5	0	0	0	0	536
6	0	0	0	0	536
7	0	0	0	0	535
8	0	0	0	0	535
9	0	0	0	0	534
10	0	0	0	0	533
11	0	0	0	0	533
12	0	0	0	0	533
13	0	0	0	0	534
14	0	0	0	0	535
15	0	0	0	0	536
0	0	0	0	0	536
1	0	0	0	0	536
2	0	0	0	0	535
3	0	0	0	0	536
4	0	0	0	0	536
5	0	0	0	0	536
6	0	0	0	0	535
7	0	0	0	0	533
8	0	0	0	0	533
9	0	0	0	0	533
10	0	0	0	0	532
11	0	0	0	0	532
12	0	0	0	0	532
13	0	0	0	0	533
14	0	0	0	0	533
15	0	0	0	0	532
0	0	0	0	0	531
1	0	0	0	0	531
2	0	0	0	0	531
3	0	0	0	0	531
4	0	0	0	0	530
5	0	0	0	0	529
6	0	0	0	0	529
7	0	0	0	0	528
8	0	0	0	0	527
9	0	0	0	0	527
10	0	0	0	0	527
11	0	0	0	0	527
12	0	0	0	0	527
13	0	0	0	0	525
14	0	0	0	0	524
15	0	0	0	0	524
0	0	0	0	0	524
1	0	0	0	0	524
2	0	0	0	0	524
3	0	0	0	0	524
4	0	0	0	0	524
5	0	0	0	0	521
6	0	0	0	0	521
7	0	0	0	0	520
8	0	0	0	0	519
9	0	0	0	0	519
10	0	0	0	0	518
11	0	0	0	0	517
12	0	0	0	0	517
13	0	0	0	0	516
14	0	0	0	0	516
15	0	0	0	0	515
0	0	0	0	0	515
1	0	0	0	0	514
2	0	0	0	0	512
3	0	0	0	0	512
4	0	0	0	0	510
5	0	0	0	0	509
6	0	0	0	0	508
7	0	0	0	0	506
8	0	0	0	0	506
9	0	0	0	0	506
10	0	0	0	0	505
11	0	0	0	0	503
12	0	0	0	0	502
13	0	0	0	0	502
14	0	0	0	0	503
15	0	0	0	0	501
0	0	0	0	0	501
1	0	0	0	0	501
2	0	0	0	0	501
3	0	0	0	0	500
4	0	0	0	0	498
5	0	0	0	0	498
6	0	0	0	0	497
7	0	0	0	0	497
8	0	0	0	0	496
9	0	0	0	0	496
10	0	0	0	0	495
11	0	0	0	0	495
12	0	0	0	0	494
13	0	0	0	0	494
14	0	0	0	0	493
15	0	0	0	0	493
0	0	0	0	0	491
1	0	0	0	0	489
2	0	0	0	0	488
3	0	0	0	0	487
4	0	0	0	0	486
5	0	0	0	0	487
6	0	0	0	0	488
7	0	0	0	0	487
8	0	0	0	0	485
9	0	0	0	0	485
10	0	0	0	0	485
11	0	0	0	0	485
12	0	0	0	0	485
13	0	0	0	0	485
14	0	0	0	0	487
15	0	0	0	0	486
0	0	0	0	0	486
1	0	0	0	0	487
2	0	0	0	0	487
3	0	0	0	0	488
4	0	0	0	0	487
5	0	0	0	0	487
6	0	0	0	0	485
7	0	0	0	0	485
8	0	0	0	0	485
9	0	0	0	0	485
10	0	0	0	0	485
11	0	0	0	0	484
12	0	0	0	0	483
13	0	0	0	0	484
14	0	0	0	0	484
15	0	0	0	0	484
0	0	0	0	0	483
1	0	0	0	0	482
2	0	0	0	0	481
3	0	0	0	0	481
4	0	0	0	0	481
5	0	0	0	0	481
6	0	0	0	0	482
7	0	0	0	0	483
8	0	0	0	0	483
9	0	0	0	0	484
10	0	0	0	0	484
11	0	0	0	0	484
12	0	0	0	0	483
13	0	0	0	0	484
14	0	0	0	0	484
15	0	0	0	0	483
0	0	0	0	0	483
1	0	0	0	0	483
2	0	0	0	0	483
3	0	0	0	0	484
4	0	0	0	0	484
5	0	0	0	0	485
6	0	0	0	0	486
7	0	0	0	0	486
8	0	0	0	0	487
9	0	0	0	0	486
10	0	0	0	0	485
11	0	0	0	0	486
12	0	0	0	0	486
13	0	0	0	0	486
14	0	0	0	0	486
15	0	0	0	0	486
0	0	0	0	0	485
1	0	0	0	0	484
2	0	0	0	0	483
3	0	0	0	0	483
4	0	0	0	0	483
5	0	0	0	0	483
6	0	0	0	0	484
7	0	0	0	0	485
8	0	0	0	0	487
9	0	0	0	0	487
10	0	0	0	0	489
11	0	0	0	0	490
12	0	0	0	0	490
13	0	0	0	0	490
14	0	0	0	0	490
15	0	0	0	0	489
0	0	0	0	0	488
1	0	0	0	0	487
2	0	0	0	0	487
3	0	0	0	0	487
4	0	0	0	0	487
5	0	0	0	0	487
6	0	0	0	0	488
7	0	0	0	0	489
8	0	0	0	0	491
9	0	0	0	0	492
10	0	0	0	0	491
11	0	0	0	0	489
12	0	0	0	0	488
13	0	0	0	0	488
14	0	0	0	0	491
15	0	0	0	0	491
0	0	0	0	0	491
1	0	0	0	0	490
2	0	0	0	0	488
3	0	0	0	0	487
4	0	0	0	0	486
5	0	0	0	0	486
6	0	0	0	0	488
7	0	0	0	0	491
8	0	0	0	0	494
9	0	0	0	0	497
10	0	0	0	0	498
11	0	0	0	0	499
12	0	0	0	0	499
13	0	0	0	0	499
14	0	0	0	0	499
15	0	0	0	0	499
0	0	0	0	0	499
1	0	0	0	0	499
2	0	0	0	0	498
3	0	0	0	0	497
4	0	0	0	0	497
5	0	0	0	0	497
6	0	0	0	0	497
7	0	0	0	0	496
8	0	0	0	0	496
9	0	0	0	0	496
10	0	0	0	0	495
11	0	0	0	0	495
12	0	0	0	0	495
13	0	0	0	0	495
14	0	0	0	0	496
15	0	0	0	0	496
0	0	0	0	0	496
1	0	0	0	0	496
2	0	0	0	0	495
3	0	0	0	0	496
4	0	0	0	0	496
5	0	0	0	0	495
6	0	0	0	0	495
7	0	0	0	0	495
8	0	0	0	0	496
9	0	0	0	0	496
10	0	0	0	0	496
11	0	0	0	0	496
12	0	0	0	0	496
13	0	0	0	0	495
14	0	0	0	0	496
15	0	0	0	0	496
0	0	0	0	0	496
1	0	0	0	0	495
2	0	0	0	0	494
3	0	0	0	0	494
4	0	0	0	0	494
5	0	0	0	0	495
6	0	0	0	0	495
7	0	0	0	0	495
8	0	0	0	0	494
9	0	0	0	0	494
10	0	0	0	0	494
11	0	0	0	0	494
12	0	0	0	0	495
13	0	0	0	0	495
14	0	0	0	0	494
15	0	0	0	0	494
0	0	0	0	0	494
1	0	0	0	0	495
2	0	0	0	0	494
3	0	0	0	0	494
4	0	0	0	0	495
5	0	0	0	0	495
6	0	0	0	0	495
7	0	0	0	0	495
8	0	0	0	0	496
9	0	0	0	0	496
10	0	0	0	0	496
11	0	0	0	0	497
12	0	0	0	0	497
13	0	0	0	0	496
14	0	0	0	0	496
15	0	0	0	0	497
0	0	0	0	0	497
1	0	0	0	0	497
2	0	0	0	0	496
3	0	0	0	0	495
4	0	0	0	0	495
5	0	0	0	0	495
6	0	0	0	0	495
7	0	0	0	0	496
8	0	0	0	0	497
9	0	0	0	0	497
10	0	0	0	0	497
11	0	0	0	0	496
12	0	0	0	0	494
13	0	0	0	0	492
14	0	0	0	0	492
15	0	0	0	0	494
0	0	0	0	0	497
1	0	0	0	0	500
2	0	0	0	0	501
3	0	0	0	0	503
4	0	0	0	0	505
5	0	0	0	0	506
6	0	0	0	0	508
7	0	0	0	0	507
8	0	0	0	0	507
9	0	0	0	0	505
10	0	0	0	0	504
11	0	0	0	0	504
12	0	0	0	0	504
13	0	0	0	0	505
14	0	0	0	0	508
15	0	0	0	0	510
0	0	0	0	0	510
1	0	0	0	0	511
2	0	0	0	0	511
3	0	0	0	0	510
4	0	0	0	0	508
5	0	0	0	0	508
6	0	0	0	0	507
7	0	0	0	0	507
8	0	0	0	0	508
9	0	0	0	0	506
10	0	0	0	0	506
11	0	0	0	0	506
12	0	0	0	0	504
13	0	0	0	0	506
14	0	0	0	0	507
15	0	0	0	0	507
0	0	0	0	0	506
1	0	0	0	0	505
2	0	0	0	0	507
3	0	0	0	0	509
4	0	0	0	0	511
5	0	0	0	0	510
6	0	0	0	0	510
7	0	0	0	0	509
8	0	0	0	0	507
9	0	0	0	0	507
10	0	0	0	0	507
11	0	0	0	0	506
12	0	0	0	0	507
13	0	0	0	0	507
14	0	0	0	0	508
15	0	0	0	0	508
0	0	0	0	0	507
1	0	0	0	0	507
2	0	0	0	0	507
3	0	0	0	0	508
4	0	0	0	0	510
5	0	0	0	0	512
6	0	0	0	0	513
7	0	0	0	0	515
8	0	0	0	0	518
9	0	0	0	0	520
10	0	0	0	0	522
11	0	0	0	0	524
12	0	0	0	0	525
13	0	0	0	0	527
14	0	0	0	0	528
15	0	0	0	0	529
0	0	0	0	0	531
1	0	0	0	0	531
2	0	0	0	0	531
3	0	0	0	0	529
4	0	0	0	0	528
5	0	0	0	0	529
6	0	0	0	0	529
7	0	0	0	0	529
8	0	0	0	0	528
9	0	0	0	0	528
10	0	0	0	0	528
11	0	0	0	0	528
12	0	0	0	0	528
13	0	0	0	0	528
14	0	0	0	0	528
15	0	0	0	0	528
0	0	0	0	0	527
1	0	0	0	0	527
2	0	0	0	0	526
3	0	0	0	0	525
4	0	0	0	0	524
5	0	0	0	0	522
6	0	0	0	0	521
7	0	0	0	0	520
8	0	0	0	0	519
9	0	0	0	0	517
10	0	0	0	0	515
11	0	0	0	0	513
12	0	0	0	0	511
13	0	0	0	0	509
14	0	0	0	0	508
15	0	0	0	0	505
0	0	0	0	0	503
1	0	0	0	0	501
2	0	0	0	0	498
3	0	0	0	0	496
4	0	0	0	0	496
5	0	0	0	0	497
6	0	0	0	0	498
7	0	0	0	0	498
8	0	0	0	0	498
9	0	0	0	0	496
10	0	0	0	0	496
11	0	0	0	0	495
12	0	0	0	0	494
13	0	0	0	0	493
14	0	0	0	0	491
15	0	0	0	0	491
0	0	0	0	0	491
1	0	0	0	0	490
2	0	0	0	0	489
3	0	0	0	0	487
4	0	0	0	0	487
5	0	0	0	0	488
6	0	0	0	0	491
7	0	0	0	0	492
8	0	0	0	0	491
9	0	0	0	0	489
10	0	0	0	0	488
11	0	0	0	0	488
12	0	0	0	0	488
13	0	0	0	0	489
14	0	0	0	0	491
15	0	0	0	0	493
0	0	0	0	0	493
1	0	0	0	0	494
2	0	0	0	0	492
3	0	0	0	0	491
4	0	0	0	0	489
5	0	0	0	0	489
6	0	0	0	0	491
7	0	0	0	0	492
8	0	0	0	0	495
9	0	0	0	0	495
10	0	0	0	0	495
11	0	0	0	0	496
12	0	0	0	0	495
13	0	0	0	0	495
14	0	0	0	0	495
15	0	0	0	0	495
0	0	0	0	0	495
1	0	0	0	0	494
2	0	0	0	0	494
3	0	0	0	0	494
4	0	0	0	0	492
5	0	0	0	0	489
6	0	0	0	0	487
7	0	0	0	0	485
8	0	0	0	0	483
9	0	0	0	0	481
10	0	0	0	0	478
11	0	0	0	0	476
12	0	0	0	0	475
13	0	0	0	0	474
14	0	0	0	0	473
15	0	0	0	0	473
0	0	0	0	0	471
1	0	0	0	0	472
2	0	0	0	0	473
3	0	0	0	0	475
4	0	0	0	0	479
5	0	0	0	0	484
6	0	0	0	0	491
7	0	0	0	0	498
8	0	0	0	0	505
9	0	0	0	0	514
10	0	0	0	0	523
11	0	0	0	0	532
12	0	0	0	0	543
13	0	0	0	0	553
14	0	0	0	0	564
15	0	0	0	0	577
0	0	0	0	0	592
1	0	0	0	0	612
2	0	0	0	0	632
3	0	0	0	0	655
4	0	0	0	0	677
5	0	0	0	0	697
6	0	0	0	0	710
7	0	0	0	0	718
8	0	0	0	0	719
9	0	0	0	0	716
10	0	0	0	0	708
11	0	0	0	0	696
12	0	0	0	0	682
13	0	0	0	0	668
14	0	0	0	0	652
15	0	0	0	0	636
0	0	0	0	0	619
1	0	0	0	0	601
2	0	0	0	0	581
3	0	0	0	0	558
4	0	0	0	0	533
5	0	0	0	0	504
6	0	0	0	0	475
7	0	0	0	0	446
8	0	0	0	0	419
9	0	0	0	0	398
10	0	0	0	0	382
11	0	0	0	0	369
12	0	0	0	0	358
13	0	0	0	0	350
14	0	0	0	0	346
15	0	0	0	0	343
0	0	0	0	0	340
1	0	0	0	0	337
2	0	0	0	0	336
3	0	0	0	0	337
4	0	0	0	0	339
5	0	0	0	0	343
6	0	0	0	0	350
7	0	0	0	0	359
8	0	0	0	0	368
9	0	0	0	0	377
10	0	0	0	0	386
11	0	0	0	0	395
12	0	0	0	0	402
13	0	0	0	0	411
14	0	0	0	0	419
15	0	0	0	0	426
0	0	0	0	0	435
1	0	0	0	0	445
2	0	0	0	0	455
3	0	0	0	0	462
4	0	0	0	0	469
5	0	0	0	0	474
6	0	0	0	0	479
7	0	0	0	0	483
8	0	0	0	0	484
9	0	0	0	0	486
10	0	0	0	0	487
11	0	0	0	0	491
12	0	0	0	0	494
13	0	0	0	0	497
14	0	0	0	0	499
15	0	0	0	0	499
0	0	0	0	0	501
1	0	0	0	0	503
2	0	0	0	0	506
3	0	0	0	0	507
4	0	0	0	0	508
5	0	0	0	0	508
6	0	0	0	0	508
7	0	0	0	0	509
8	0	0	0	0	508
9	0	0	0	0	509
10	0	0	0	0	509
11	0	0	0	0	509
12	0	0	0	0	509
13	0	0	0	0	509
14	0	0	0	0	508
15	0	0	0	0	508
0	0	0	0	0	509
1	0	0	0	0	511
2	0	0	0	0	512
3	0	0	0	0	513
4	0	0	0	0	513
5	0	0	0	0	513
6	0	0	0	0	513
7	0	0	0	0	513
8	0	0	0	0	512
9	0	0	0	0	511
10	0	0	0	0	512
11	0	0	0	0	512
12	0	0	0	0	514
13	0	0	0	0	514
14	0	0	0	0	514
15	0	0	0	0	515
0	0	0	0	0	515
1	0	0	0	0	516
2	0	0	0	0	516
3	0	0	0	0	515
4	0	0	0	0	515
5	0	0	0	0	515
6	0	0	0	0	515
7	0	0	0	0	516
8	0	0	0	0	517
9	0	0	0	0	518
10	0	0	0	0	517
11	0	0	0	0	516
12	0	0	0	0	516
13	0	0	0	0	517
14	0	0	0	0	519
15	0	0	0	0	519
0	0	0	0	0	519
1	0	0	0	0	519
2	0	0	0	0	519
3	0	0	0	0	519
4	0	0	0	0	518
5	0	0	0	0	518
6	0	0	0	0	519
7	0	0	0	0	519
8	0	0	0	0	519
9	0	0	0	0	519
10	0	0	0	0	518
11	0	0	0	0	518
12	0	0	0	0	518
13	0	0	0	0	518
14	0	0	0	0	518
15	0	0	0	0	518
0	0	0	0	0	518
1	0	0	0	0	518
2	0	0	0	0	518
3	0	0	0	0	519
4	0	0	0	0	521
5	0	0	0	0	522
6	0	0	0	0	523
7	0	0	0	0	523
8	0	0	0	0	524
9	0	0	0	0	523
10	0	0	0	0	524
11	0	0	0	0	524
12	0	0	0	0	524
13	0	0	0	0	524
14	0	0	0	0	525
15	0	0	0	0	525
0	0	0	0	0	523
1	0	0	0	0	524
2	0	0	0	0	524
3	0	0	0	0	524
4	0	0	0	0	525
5	0	0	0	0	525
6	0	0	0	0	525
7	0	0	0	0	526
8	0	0	0	0	526
9	0	0	0	0	527
10	0	0	0	0	527
11	0	0	0	0	527
12	0	0	0	0	527
13	0	0	0	0	528
14	0	0	0	0	528
15	0	0	0	0	528
0	0	0	0	0	528
1	0	0	0	0	528
2	0	0	0	0	528
3	0	0	0	0	529
4	0	0	0	0	528
5	0	0	0	0	528
6	0	0	0	0	528
7	0	0	0	0	528
8	0	0	0	0	528
9	0	0	0	0	530
10	0	0	0	0	531
11	0	0	0	0	533
12	0	0	0	0	533
13	0	0	0	0	534
14	0	0	0	0	534
15	0	0	0	0	534
0	0	0	0	0	534
1	0	0	0	0	534
2	0	0	0	0	534
3	0	0	0	0	533
4	0	0	0	0	532
5	0	0	0	0	531
6	0	0	0	0	530
7	0	0	0	0	531
8	0	0	0	0	533
9	0	0	0	0	535
10	0	0	0	0	537
11	0	0	0	0	537
12	0	0	0	0	536
13	0	0	0	0	536
14	0	0	0	0	536
15	0	0	0	0	536
0	0	0	0	0	537
1	0	0	0	0	538
2	0	0	0	0	539
3	0	0	0	0	539
4	0	0	0	0	539
5	0	0	0	0	538
6	0	0	0	0	538
7	0	0	0	0	536
8	0	0	0	0	536
9	0	0	0	0	536
10	0	0	0	0	536
11	0	0	0	0	536
12	0	0	0	0	535
13	0	0	0	0	533
14	0	0	0	0	532
15	0	0	0	0	531
0	0	0	0	0	530
1	0	0	0	0	529
2	0	0	0	0	528
3	0	0	0	0	527
4	0	0	0	0	526
5	0	0	0	0	525
6	0	0	0	0	524
7	0	0	0	0	526
8	0	0	0	0	527
9	0	0	0	0	526
10	0	0	0	0	525
11	0	0	0	0	524
12	0	0	0	0	523
13	0	0	0	0	523
14	0	0	0	0	522
15	0	0	0	0	522
0	0	0	0	0	521
1	0	0	0	0	520
2	0	0	0	0	521
3	0	0	0	0	521
4	0	0	0	0	521
5	0	0	0	0	521
6	0	0	0	0	522
7	0	0	0	0	521
8	0	0	0	0	520
9	0	0	0	0	519
10	0	0	0	0	519
11	0	0	0	0	519
12	0	0	0	0	519
13	0	0	0	0	518
14	0	0	0	0	516
15	0	0	0	0	513
0	0	0	0	0	511
1	0	0	0	0	509
2	0	0	0	0	509
3	0	0	0	0	509
4	0	0	0	0	509
5	0	0	0	0	509
6	0	0	0	0	508
7	0	0	0	0	508
8	0	0	0	0	507
9	0	0	0	0	507
10	0	0	0	0	507
11	0	0	0	0	508
12	0	0	0	0	507
13	0	0	0	0	506
14	0	0	0	0	506
15	0	0	0	0	505
0	0	0	0	0	505
1	0	0	0	0	504
2	0	0	0	0	504
3	0	0	0	0	503
4	0	0	0	0	501
5	0	0	0	0	500
6	0	0	0	0	500
7	0	0	0	0	498
8	0	0	0	0	496
9	0	0	0	0	493
10	0	0	0	0	491
11	0	0	0	0	490
12	0	0	0	0	489
13	0	0	0	0	490
14	0	0	0	0	490
15	0	0	0	0	491
0	0	0	0	0	492
1	0	0	0	0	492
2	0	0	0	0	491
3	0	0	0	0	492
4	0	0	0	0	492
5	0	0	0	0	491
6	0	0	0	0	490
7	0	0	0	0	488
8	0	0	0	0	487
9	0	0	0	0	486
10	0	0	0	0	486
11	0	0	0	0	484
12	0	0	0	0	484
13	0	0	0	0	485
14	0	0	0	0	485
15	0	0	0	0	485
0	0	0	0	0	485
1	0	0	0	0	484
2	0	0	0	0	482
3	0	0	0	0	482
4	0	0	0	0	482
5	0	0	0	0	484
6	0	0	0	0	485
7	0	0	0	0	484
8	0	0	0	0	484
9	0	0	0	0	483
10	0	0	0	0	483
11	0	0	0	0	484
12	0	0	0	0	484
13	0	0	0	0	483
14	0	0	0	0	482
15	0	0	0	0	482
0	0	0	0	0	483
1	0	0	0	0	484
2	0	0	0	0	484
3	0	0	0	0	484
4	0	0	0	0	485
5	0	0	0	0	485
6	0	0	0	0	485
7	0	0	0	0	486
8	0	0	0	0	486
9	0	0	0	0	487
10	0	0	0	0	489
11	0	0	0	0	489
12	0	0	0	0	488
13	0	0	0	0	487
14	0	0	0	0	486
15	0	0	0	0	487
0	0	0	0	0	487
1	0	0	0	0	487
2	0	0	0	0	487
3	0	0	0	0	488
4	0	0	0	0	488
5	0	0	0	0	488
6	0	0	0	0	487
7	0	0	0	0	485
8	0	0	0	0	485
9	0	0	0	0	486
10	0	0	0	0	487
11	0	0	0	0	488
12	0	0	0	0	489
13	0	0	0	0	491
14	0	0	0	0	490
15	0	0	0	0	490
0	0	0	0	0	490
1	0	0	0	0	487
2	0	0	0	0	485
3	0	0	0	0	485
4	0	0	0	0	486
5	0	0	0	0	487
6	0	0	0	0	489
7	0	0	0	0	492
8	0	0	0	0	492
9	0	0	0	0	493
10	0	0	0	0	493
11	0	0	0	0	491
12	0	0	0	0	489
13	0	0	0	0	487
14	0	0	0	0	485
15	0	0	0	0	485
0	0	0	0	0	487
1	0	0	0	0	489
2	0	0	0	0	491
3	0	0	0	0	492
4	0	0	0	0	491
5	0	0	0	0	490
6	0	0	0	0	491
7	0	0	0	0	491
8	0	0	0	0	491
9	0	0	0	0	492
10	0	0	0	0	492
11	0	0	0	0	493
12	0	0	0	0	493
13	0	0	0	0	493
14	0	0	0	0	493
15	0	0	0	0	492
0	0	0	0	0	493
1	0	0	0	0	494
2	0	0	0	0	494
3	0	0	0	0	494
4	0	0	0	0	493
5	0	0	0	0	492
6	0	0	0	0	493
7	0	0	0	0	494
8	0	0	0	0	494
9	0	0	0	0	495
10	0	0	0	0	497
11	0	0	0	0	496
12	0	0	0	0	496
13	0	0	0	0	496
14	0	0	0	0	496
15	0	0	0	0	496
0	0	0	0	0	496
1	0	0	0	0	496
2	0	0	0	0	496
3	0	0	0	0	495
4	0	0	0	0	495
5	0	0	0	0	494
6	0	0	0	0	495
7	0	0	0	0	494
8	0	0	0	0	494
9	0	0	0	0	495
10	0	0	0	0	495
11	0	0	0	0	495
12	0	0	0	0	495
13	0	0	0	0	496
14	0	0	0	0	496
15	0	0	0	0	495
0	0	0	0	0	494
1	0	0	0	0	495
2	0	0	0	0	496
3	0	0	0	0	496
4	0	0	0	0	497
5	0	0	0	0	498
6	0	0	0	0	499
7	0	0	0	0	500
8	0	0	0	0	501
9	0	0	0	0	501
10	0	0	0	0	500
11	0	0	0	0	499
12	0	0	0	0	498
13	0	0	0	0	498
14	0	0	0	0	498
15	0	0	0	0	499
0	0	0	0	0	499
1	0	0	0	0	497
2	0	0	0	0	497
3	0	0	0	0	498
4	0	0	0	0	498
5	0	0	0	0	499
6	0	0	0	0	499
7	0	0	0	0	499
8	0	0	0	0	499
9	0	0	0	0	500
10	0	0	0	0	500
11	0	0	0	0	498
12	0	0	0	0	498
13	0	0	0	0	497
14	0	0	0	0	497
15	0	0	0	0	497
0	0	0	0	0	496
1	0	0	0	0	496
2	0	0	0	0	497
3	0	0	0	0	499
4	0	0	0	0	500
5	0	0	0	0	501
6	0	0	0	0	502
7	0	0	0	0	502
8	0	0	0	0	502
9	0	0	0	0	502
10	0	0	0	0	503
11	0	0	0	0	503
12	0	0	0	0	502
13	0	0	0	0	501
14	0	0	0	0	500
15	0	0	0	0	499
0	0	0	0	0	501
1	0	0	0	0	501
2	0	0	0	0	501
3	0	0	0	0	499
4	0	0	0	0	499
5	0	0	0	0	500
6	0	0	0	0	500
7	0	0	0	0	500
8	0	0	0	0	500
9	0	0	0	0	502
10	0	0	0	0	503
11	0	0	0	0	504
12	0	0	0	0	504
13	0	0	0	0	504
14	0	0	0	0	505
15	0	0	0	0	505
0	0	0	0	0	504
1	0	0	0	0	503
2	0	0	0	0	503
3	0	0	0	0	503
4	0	0	0	0	504
5	0	0	0	0	504
6	0	0	0	0	505
7	0	0	0	0	505
8	0	0	0	0	505
9	0	0	0	0	505
10	0	0	0	0	505
11	0	0	0	0	504
12	0	0	0	0	504
13	0	0	0	0	504
14	0	0	0	0	505
15	0	0	0	0	505
0	0	0	0	0	506
1	0	0	0	0	505
2	0	0	0	0	505
3	0	0	0	0	504
4	0	0	0	0	503
5	0	0	0	0	502
6	0	0	0	0	502
7	0	0	0	0	504
8	0	0	0	0	506
9	0	0	0	0	506
10	0	0	0	0	505
11	0	0	0	0	505
12	0	0	0	0	504
13	0	0	0	0	504
14	0	0	0	0	504
15	0	0	0	0	505
0	0	0	0	0	505
1	0	0	0	0	504
2	0	0	0	0	504
3	0	0	0	0	504
4	0	0	0	0	504
5	0	0	0	0	506
6	0	0	0	0	508
7	0	0	0	0	510
8	0	0	0	0	508
9	0	0	0	0	507
10	0	0	0	0	505
11	0	0	0	0	505
12	0	0	0	0	506
13	0	0	0	0	507
14	0	0	0	0	509
15	0	0	0	0	511
0	0	0	0	0	512
1	0	0	0	0	514
2	0	0	0	0	516
3	0	0	0	0	518
4	0	0	0	0	520
5	0	0	0	0	521
6	0	0	0	0	522
7	0	0	0	0	523
8	0	0	0	0	525
9	0	0	0	0	527
10	0	0	0	0	528
11	0	0	0	0	530
12	0	0	0	0	530
13	0	0	0	0	530
14	0	0	0	0	530
15	0	0	0	0	531
0	0	0	0	0	532
1	0	0	0	0	532
2	0	0	0	0	533
3	0	0	0	0	532
4	0	0	0	0	531
5	0	0	0	0	531
6	0	0	0	0	530
7	0	0	0	0	529
8	0	0	0	0	529
9	0	0	0	0	527
10	0	0	0	0	525
11	0	0	0	0	524
12	0	0	0	0	523
13	0	0	0	0	521
14	0	0	0	0	520
15	0	0	0	0	518
0	0	0	0	0	517
1	0	0	0	0	517
2	0	0	0	0	517
3	0	0	0	0	516
4	0	0	0	0	516
5	0	0	0	0	515
6	0	0	0	0	513
7	0	0	0	0	512
8	0	0	0	0	511
9	0	0	0	0	510
10	0	0	0	0	509
11	0	0	0	0	507
12	0	0	0	0	507
13	0	0	0	0	507
14	0	0	0	0	507
15	0	0	0	0	505
0	0	0	0	0	504
1	0	0	0	0	502
2	0	0	0	0	499
3	0	0	0	0	498
4	0	0	0	0	497
5	0	0	0	0	496
6	0	0	0	0	495
7	0	0	0	0	495
8	0	0	0	0	495
9	0	0	0	0	494
10	0	0	0	0	493
11	0	0	0	0	493
12	0	0	0	0	493
13	0	0	0	0	493
14	0	0	0	0	492
15	0	0	0	0	492
0	0	0	0	0	492
1	0	0	0	0	492
2	0	0	0	0	493
3	0	0	0	0	492
4	0	0	0	0	492
5	0	0	0	0	493
6	0	0	0	0	492
7	0	0	0	0	493
8	0	0	0	0	493
9	0	0	0	0	494
10	0	0	0	0	493
11	0	0	0	0	492
12	0	0	0	0	490
13	0	0	0	0	489
14	0	0	0	0	490
15	0	0	0	0	492
0	0	0	0	0	492
1	0	0	0	0	492
2	0	0	0	0	491
3	0	0	0	0	491
4	0	0	0	0	491
5	0	0	0	0	491
6	0	0	0	0	491
7	0	0	0	0	491
8	0	0	0	0	492
9	0	0	0	0	492
10	0	0	0	0	492
11	0	0	0	0	494
12	0	0	0	0	493
13	0	0	0	0	493
14	0	0	0	0	492
15	0	0	0	0	491
0	0	0	0	0	490
1	0	0	0	0	487
2	0	0	0	0	486
3	0	0	0	0	484
4	0	0	0	0	481
5	0	0	0	0	479
6	0	0	0	0	477
7	0	0	0	0	474
8	0	0	0	0	472
9	0	0	0	0	470
10	0	0	0	0	470
11	0	0	0	0	470
12	0	0	0	0	472
13	0	0	0	0	473
14	0	0	0	0	476
15	0	0	0	0	481
0	0	0	0	0	486
1	0	0	0	0	492
2	0	0	0	0	499
3	0	0	0	0	507
4	0	0	0	0	516
5	0	0	0	0	524
6	0	0	0	0	532
7	0	0	0	0	543
8	0	0	0	0	554
9	0	0	0	0	567
10	0	0	0	0	580
11	0	0	0	0	598
12	0	0	0	0	618
13	0	0	0	0	639
14	0	0	0	0	663
15	0	0	0	0	684
0	0	0	0	0	703
1	0	0	0	0	715
2	0	0	0	0	721
3	0	0	0	0	720
4	0	0	0	0	714
5	0	0	0	0	701
6	0	0	0	0	688
7	0	0	0	0	675
8	0	0	0	0	662
9	0	0	0	0	647
10	0	0	0	0	630
11	0	0	0	0	613
12	0	0	0	0	594
13	0	0	0	0	573
14	0	0	0	0	550
15	0	0	0	0	525
0	0	0	0	0	497
1	0	0	0	0	470
2	0	0	0	0	443
3	0	0	0	0	419
4	0	0	0	0	400
5	0	0	0	0	385
6	0	0	0	0	369
7	0	0	0	0	357
8	0	0	0	0	348
9	0	0	0	0	344
10	0	0	0	0	341
11	0	0	0	0	338
12	0	0	0	0	337
13	0	0	0	0	337
14	0	0	0	0	338
15	0	0	0	0	340
0	0	0	0	0	344
1	0	0	0	0	351
2	0	0	0	0	359
3	0	0	0	0	367
4	0	0	0	0	376
5	0	0	0	0	385
6	0	0	0	0	397
7	0	0	0	0	408
8	0	0	0	0	419
9	0	0	0	0	429
10	0	0	0	0	438
11	0	0	0	0	446
12	0	0	0	0	452
13	0	0	0	0	459
14	0	0	0	0	465
15	0	0	0	0	471
0	0	0	0	0	476
1	0	0	0	0	480
2	0	0	0	0	483
3	0	0	0	0	487
4	0	0	0	0	489
5	0	0	0	0	493
6	0	0	0	0	494
7	0	0	0	0	495
8	0	0	0	0	496
9	0	0	0	0	497
10	0	0	0	0	499
11	0	0	0	0	500
12	0	0	0	0	501
13	0	0	0	0	501
14	0	0	0	0	500
15	0	0	0	0	501
0	0	0	0	0	502
1	0	0	0	0	504
2	0	0	0	0	505
3	0	0	0	0	507
4	0	0	0	0	508
5	0	0	0	0	508
6	0	0	0	0	508
7	0	0	0	0	508
8	0	0	0	0	508
9	0	0	0	0	508
10	0	0	0	0	509
11	0	0	0	0	510
12	0	0	0	0	511
13	0	0	0	0	511
14	0	0	0	0	512
15	0	0	0	0	511
0	0	0	0	0	511
1	0	0	0	0	511
2	0	0	0	0	511
3	0	0	0	0	512
4	0	0	0	0	514
5	0	0	0	0	514
6	0	0	0	0	513
7	0	0	0	0	513
8	0	0	0	0	513
9	0	0	0	0	512
10	0	0	0	0	511
11	0	0	0	0	511
12	0	0	0	0	512
13	0	0	0	0	513
14	0	0	0	0	513
15	0	0	0	0	514
0	0	0	0	0	515
1	0	0	0	0	515
2	0	0	0	0	515
3	0	0	0	0	515
4	0	0	0	0	514
5	0	0	0	0	513
6	0	0	0	0	514
7	0	0	0	0	515
8	0	0	0	0	517
9	0	0	0	0	519
10	0	0	0	0	519
11	0	0	0	0	519
12	0	0	0	0	520
13	0	0	0	0	519
14	0	0	0	0	518
15	0	0	0	0	518
0	0	0	0	0	518
1	0	0	0	0	518
2	0	0	0	0	517
3	0	0	0	0	517
4	0	0	0	0	517
5	0	0	0	0	518
6	0	0	0	0	519
7	0	0	0	0	519
8	0	0	0	0	519
9	0	0	0	0	520
10	0	0	0	0	520
11	0	0	0	0	520
12	0	0	0	0	521
13	0	0	0	0	521
14	0	0	0	0	521
15	0	0	0	0	522
0	0	0	0	0	522
1	0	0	0	0	521
2	0	0	0	0	523
3	0	0	0	0	524
4	0	0	0	0	523
5	0	0	0	0	524
6	0	0	0	0	523
7	0	0	0	0	523
8	0	0	0	0	524
9	0	0	0	0	524
10	0	0	0	0	524
11	0	0	0	0	524
12	0	0	0	0	524
13	0	0	0	0	524
14	0	0	0	0	523
15	0	0	0	0	523
0	0	0	0	0	523
1	0	0	0	0	523
2	0	0	0	0	524
3	0	0	0	0	524
4	0	0	0	0	524
5	0	0	0	0	524
6	0	0	0	0	525
7	0	0	0	0	527
8	0	0	0	0	528
9	0	0	0	0	529
10	0	0	0	0	529
11	0	0	0	0	530
12	0	0	0	0	530
13	0	0	0	0	531
14	0	0	0	0	531
15	0	0	0	0	531
0	0	0	0	0	531
1	0	0	0	0	531
2	0	0	0	0	530
3	0	0	0	0	531
4	0	0	0	0	530
5	0	0	0	0	530
6	0	0	0	0	531
7	0	0	0	0	531
8	0	0	0	0	532
9	0	0	0	0	532
10	0	0	0	0	532
11	0	0	0	0	532
12	0	0	0	0	532
13	0	0	0	0	533
14	0	0	0	0	533
15	0	0	0	0	533
0	0	0	0	0	532
1	0	0	0	0	531
2	0	0	0	0	530
3	0	0	0	0	530
4	0	0	0	0	530
5	0	0	0	0	531
6	0	0	0	0	533
7	0	0	0	0	534
8	0	0	0	0	534
9	0	0	0	0	534
10	0	0	0	0	533
11	0	0	0	0	533
12	0	0	0	0	533
13	0	0	0	0	532
14	0	0	0	0	531
15	0	0	0	0	531
0	0	0	0	0	531
1	0	0	0	0	532
2	0	0	0	0	532
3	0	0	0	0	532
4	0	0	0	0	532
5	0	0	0	0	533
6	0	0	0	0	533
7	0	0	0	0	533
8	0	0	0	0	532
9	0	0	0	0	532
10	0	0	0	0	532
11	0	0	0	0	532
12	0	0	0	0	531
13	0	0	0	0	530
14	0	0	0	0	529
15	0	0	0	0	529
0	0	0	0	0	528
1	0	0	0	0	526
2	0	0	0	0	524
3	0	0	0	0	523
4	0	0	0	0	524
5	0	0	0	0	525
6	0	0	0	0	525
7	0	0	0	0	524
8	0	0	0	0	525
9	0	0	0	0	525
10	0	0	0	0	524
11	0	0	0	0	524
12	0	0	0	0	524
13	0	0	0	0	525
14	0	0	0	0	523
15	0	0	0	0	521
0	0	0	0	0	520
1	0	0	0	0	519
2	0	0	0	0	519
3	0	0	0	0	518
4	0	0	0	0	518
5	0	0	0	0	517
6	0	0	0	0	516
7	0	0	0	0	515
8	0	0	0	0	515
9	0	0	0	0	515
10	0	0	0	0	515
11	0	0	0	0	513
12	0	0	0	0	511
13	0	0	0	0	511
14	0	0	0	0	511
15	0	0	0	0	511
0	0	0	0	0	511
1	0	0	0	0	510
2	0	0	0	0	509
3	0	0	0	0	509
4	0	0	0	0	509
5	0	0	0	0	509
6	0	0	0	0	508
7	0	0	0	0	508
8	0	0	0	0	507
9	0	0	0	0	504
10	0	0	0	0	505
11	0	0	0	0	505
12	0	0	0	0	505
13	0	0	0	0	504
14	0	0	0	0	503
15	0	0	0	0	502
0	0	0	0	0	501
1	0	0	0	0	500
2	0	0	0	0	500
3	0	0	0	0	499
4	0	0	0	0	498
5	0	0	0	0	496
6	0	0	0	0	494
7	0	0	0	0	493
8	0	0	0	0	492
9	0	0	0	0	492
10	0	0	0	0	492
11	0	0	0	0	491
12	0	0	0	0	491
13	0	0	0	0	489
14	0	0	0	0	488
15	0	0	0	0	487
0	0	0	0	0	486
1	0	0	0	0	484
2	0	0	0	0	483
3	0	0	0	0	483
4	0	0	0	0	484
5	0	0	0	0	485
6	0	0	0	0	485
7	0	0	0	0	484
8	0	0	0	0	484
9	0	0	0	0	485
10	0	0	0	0	485
11	0	0	0	0	486
12	0	0	0	0	486
13	0	0	0	0	487
14	0	0	0	0	487
15	0	0	0	0	486
0	0	0	0	0	486
1	0	0	0	0	485
2	0	0	0	0	485
3	0	0	0	0	485
4	0	0	0	0	485
5	0	0	0	0	484
6	0	0	0	0	483
7	0	0	0	0	483
8	0	0	0	0	482
9	0	0	0	0	481
10	0	0	0	0	480
11	0	0	0	0	480
12	0	0	0	0	480
13	0	0	0	0	481
14	0	0	0	0	482
15	0	0	0	0	483
0	0	0	0	0	483
1	0	0	0	0	484
2	0	0	0	0	485
3	0	0	0	0	485
4	0	0	0	0	485
5	0	0	0	0	485
6	0	0	0	0	485
7	0	0	0	0	486
8	0	0	0	0	485
9	0	0	0	0	486
10	0	0	0	0	485
11	0	0	0	0	484
12	0	0	0	0	484
13	0	0	0	0	484
14	0	0	0	0	483
15	0	0	0	0	483
0	0	0	0	0	483
1	0	0	0	0	483
2	0	0	0	0	483
3	0	0	0	0	485
4	0	0	0	0	487
5	0	0	0	0	488
6	0	0	0	0	488
7	0	0	0	0	489
8	0	0	0	0	490
9	0	0	0	0	490
10	0	0	0	0	489
11	0	0	0	0	489
12	0	0	0	0	489
13	0	0	0	0	489
14	0	0	0	0	489
15	0	0	0	0	489
0	0	0	0	0	489
1	0	0	0	0	488
2	0	0	0	0	488
3	0	0	0	0	488
4	0	0	0	0	488
5	0	0	0	0	489
6	0	0	0	0	489
7	0	0	0	0	489
8	0	0	0	0	489
9	0	0	0	0	489
10	0	0	0	0	489
11	0	0	0	0	490
12	0	0	0	0	490
13	0	0	0	0	490
14	0	0	0	0	491
15	0	0	0	0	490
0	0	0	0	0	490
1	0	0	0	0	490
2	0	0	0	0	491
3	0	0	0	0	492
4	0	0	0	0	492
5	0	0	0	0	492
6	0	0	0	0	491
7	0	0	0	0	491
8	0	0	0	0	491
9	0	0	0	0	490
10	0	0	0	0	491
11	0	0	0	0	491
12	0	0	0	0	491
13	0	0	0	0	491
14	0	0	0	0	492
15	0	0	0	0	492
0	0	0	0	0	492
1	0	0	0	0	492
2	0	0	0	0	492
3	0	0	0	0	493
4	0	0	0	0	493
5	0	0	0	0	494
6	0	0	0	0	494
7	0	0	0	0	495
8	0	0	0	0	495
9	0	0	0	0	495
10	0	0	0	0	495
11	0	0	0	0	495
12	0	0	0	0	496
13	0	0	0	0	496
14	0	0	0	0	496
15	0	0	0	0	496
0	0	0	0	0	497
1	0	0	0	0	497
2	0	0	0	0	497
3	0	0	0	0	497
4	0	0	0	0	497
5	0	0	0	0	496
6	0	0	0	0	495
7	0	0	0	0	494
8	0	0	0	0	495
9	0	0	0	0	495
10	0	0	0	0	495
11	0	0	0	0	495
12	0	0	0	0	496
13	0	0	0	0	497
14	0	0	0	0	497
15	0	0	0	0	497
0	0	0	0	0	498
1	0	0	0	0	499
2	0	0	0	0	500
3	0	0	0	0	500
4	0	0	0	0	499
5	0	0	0	0	499
6	0	0	0	0	498
7	0	0	0	0	497
8	0	0	0	0	497
9	0	0	0	0	498
10	0	0	0	0	498
11	0	0	0	0	498
12	0	0	0	0	498
13	0	0	0	0	498
14	0	0	0	0	498
15	0	0	0	0	499
0	0	0	0	0	499
1	0	0	0	0	499
2	0	0	0	0	500
3	0	0	0	0	499
4	0	0	0	0	500
5	0	0	0	0	501
6	0	0	0	0	500
7	0	0	0	0	499
8	0	0	0	0	499
9	0	0	0	0	499
10	0	0	0	0	500
11	0	0	0	0	500
12	0	0	0	0	500
13	0	0	0	0	499
14	0	0	0	0	500
15	0	0	0	0	501
0	0	0	0	0	502
1	0	0	0	0	502
2	0	0	0	0	502
3	0	0	0	0	502
4	0	0	0	0	501
5	0	0	0	0	500
6	0	0	0	0	500
7	0	0	0	0	500
8	0	0	0	0	500
9	0	0	0	0	501
10	0	0	0	0	501
11	0	0	0	0	502
12	0	0	0	0	502
13	0	0	0	0	502
14	0	0	0	0	501
15	0	0	0	0	501
0	0	0	0	0	501
1	0	0	0	0	500
2	0	0	0	0	499
3	0	0	0	0	499
4	0	0	0	0	498
5	0	0	0	0	498
6	0	0	0	0	497
7	0	0	0	0	497
8	0	0	0	0	498
9	0	0	0	0	498
10	0	0	0	0	498
11	0	0	0	0	498
12	0	0	0	0	499
13	0	0	0	0	499
14	0	0	0	0	499
15	0	0	0	0	500
0	0	0	0	0	500
1	0	0	0	0	501
2	0	0	0	0	502
3	0	0	0	0	502
4	0	0	0	0	502
5	0	0	0	0	501
6	0	0	0	0	503
7	0	0	0	0	503
8	0	0	0	0	502
9	0	0	0	0	503
10	0	0	0	0	504
11	0	0	0	0	504
12	0	0	0	0	504
13	0	0	0	0	503
14	0	0	0	0	504
15	0	0	0	0	503
0	0	0	0	0	503
1	0	0	0	0	503
2	0	0	0	0	503
3	0	0	0	0	503
4	0	0	0	0	502
5	0	0	0	0	501
6	0	0	0	0	502
7	0	0	0	0	502
8	0	0	0	0	502
9	0	0	0	0	502
10	0	0	0	0	502
11	0	0	0	0	501
12	0	0	0	0	501
13	0	0	0	0	503
14	0	0	0	0	504
15	0	0	0	0	506
0	0	0	0	0	507
1	0	0	0	0	506
2	0	0	0	0	506
3	0	0	0	0	506
4	0	0	0	0	506
5	0	0	0	0	506
6	0	0	0	0	506
7	0	0	0	0	506
8	0	0	0	0	507
9	0	0	0	0	507
10	0	0	0	0	507
11	0	0	0	0	507
12	0	0	0	0	508
13	0	0	0	0	508
14	0	0	0	0	508
15	0	0	0	0	508
0	0	0	0	0	508
1	0	0	0	0	511
2	0	0	0	0	512
3	0	0	0	0	514
4	0	0	0	0	517
5	0	0	0	0	519
6	0	0	0	0	521
7	0	0	0	0	522
8	0	0	0	0	523
9	0	0	0	0	523
10	0	0	0	0	524
11	0	0	0	0	525
12	0	0	0	0	526
13	0	0	0	0	525
14	0	0	0	0	526
15	0	0	0	0	526
0	0	0	0	0	527
1	0	0	0	0	527
2	0	0	0	0	528
3	0	0	0	0	529
4	0	0	0	0	529
5	0	0	0	0	528
6	0	0	0	0	527
7	0	0	0	0	527
8	0	0	0	0	527
9	0	0	0	0	526
10	0	0	0	0	526
11	0	0	0	0	525
12	0	0	0	0	525
13	0	0	0	0	525
14	0	0	0	0	525
15	0	0	0	0	524
0	0	0	0	0	523
1	0	0	0	0	521
2	0	0	0	0	520
3	0	0	0	0	519
4	0	0	0	0	519
5	0	0	0	0	516
6	0	0	0	0	514
7	0	0	0	0	512
8	0	0	0	0	510
9	0	0	0	0	509
10	0	0	0	0	508
11	0	0	0	0	507
12	0	0	0	0	506
13	0	0	0	0	505
14	0	0	0	0	504
15	0	0	0	0	503
0	0	0	0	0	501
1	0	0	0	0	499
2	0	0	0	0	498
3	0	0	0	0	497
4	0	0	0	0	496
5	0	0	0	0	495
6	0	0	0	0	494
7	0	0	0	0	492
8	0	0	0	0	493
9	0	0	0	0	493
10	0	0	0	0	493
11	0	0	0	0	493
12	0	0	0	0	492
13	0	0	0	0	492
14	0	0	0	0	491
15	0	0	0	0	491
0	0	0	0	0	492
1	0	0	0	0	491
2	0	0	0	0	491
3	0	0	0	0	489
4	0	0	0	0	489
5	0	0	0	0	490
6	0	0	0	0	491
7	0	0	0	0	492
8	0	0	0	0	492
9	0	0	0	0	492
10	0	0	0	0	492
11	0	0	0	0	492
12	0	0	0	0	492
13	0	0	0	0	492
14	0	0	0	0	491
15	0	0	0	0	490
0	0	0	0	0	490
1	0	0	0	0	489
2	0	0	0	0	488
3	0	0	0	0	488
4	0	0	0	0	489
5	0	0	0	0	489
6	0	0	0	0	490
7	0	0	0	0	489
8	0	0	0	0	489
9	0	0	0	0	489
10	0	0	0	0	490
11	0	0	0	0	492
12	0	0	0	0	491
13	0	0	0	0	490
14	0	0	0	0	489
15	0	0	0	0	488
0	0	0	0	0	487
1	0	0	0	0	486
2	0	0	0	0	483
3	0	0	0	0	481
4	0	0	0	0	479
5	0	0	0	0	477
6	0	0	0	0	475
7	0	0	0	0	474
8	0	0	0	0	473
9	0	0	0	0	472
10	0	0	0	0	472
11	0	0	0	0	471
12	0	0	0	0	471
13	0	0	0	0	472
14	0	0	0	0	474
15	0	0	0	0	477
0	0	0	0	0	482
1	0	0	0	0	488
2	0	0	0	0	495
3	0	0	0	0	502
4	0	0	0	0	509
5	0	0	0	0	518
6	0	0	0	0	527
7	0	0	0	0	537
8	0	0	0	0	548
9	0	0	0	0	561
10	0	0	0	0	575
11	0	0	0	0	590
12	0	0	0	0	608
13	0	0	0	0	628
14	0	0	0	0	649
15	0	0	0	0	671
0	0	0	0	0	691
1	0	0	0	0	708
2	0	0	0	0	719
3	0	0	0	0	723
4	0	0	0	0	719
5	0	0	0	0	710
6	0	0	0	0	698
7	0	0	0	0	685
8	0	0	0	0	671
9	0	0	0	0	656
10	0	0	0	0	639
11	0	0	0	0	622
12	0	0	0	0	603
13	0	0	0	0	583
14	0	0	0	0	562
15	0	0	0	0	537
0	0	0	0	0	510
1	0	0	0	0	480
2	0	0	0	0	451
3	0	0	0	0	424
4	0	0	0	0	404
5	0	0	0	0	386
6	0	0	0	0	372
7	0	0	0	0	359
8	0	0	0	0	349
9	0	0	0	0	344
10	0	0	0	0	342
11	0	0	0	0	338
12	0	0	0	0	336
13	0	0	0	0	336
14	0	0	0	0	337
15	0	0	0	0	340
0	0	0	0	0	343
1	0	0	0	0	350
2	0	0	0	0	358
3	0	0	0	0	365
4	0	0	0	0	374
5	0	0	0	0	384
6	0	0	0	0	393
7	0	0	0	0	403
8	0	0	0	0	414
9	0	0	0	0	422
10	0	0	0	0	430
11	0	0	0	0	437
12	0	0	0	0	444
13	0	0	0	0	451
14	0	0	0	0	457
15	0	0	0	0	463
0	0	0	0	0	469
1	0	0	0	0	473
2	0	0	0	0	476
3	0	0	0	0	480
4	0	0	0	0	483
5	0	0	0	0	485
6	0	0	0	0	487
7	0	0	0	0	489
8	0	0	0	0	492
9	0	0	0	0	494
10	0	0	0	0	496
11	0	0	0	0	497
12	0	0	0	0	498
13	0	0	0	0	499
14	0	0	0	0	501
15	0	0	0	0	503
0	0	0	0	0	504
1	0	0	0	0	505
2	0	0	0	0	505
3	0	0	0	0	505
4	0	0	0	0	506
5	0	0	0	0	507
6	0	0	0	0	507
7	0	0	0	0	507
8	0	0	0	0	507
9	0	0	0	0	508
10	0	0	0	0	507
11	0	0	0	0	509
12	0	0	0	0	510
13	0	0	0	0	511
14	0	0	0	0	512
15	0	0	0	0	512
0	0	0	0	0	513
1	0	0	0	0	514
2	0	0	0	0	515
3	0	0	0	0	516
4	0	0	0	0	515
5	0	0	0	0	515
6	0	0	0	0	515
7	0	0	0	0	514
8	0	0	0	0	513
9	0	0	0	0	512
10	0	0	0	0	512
11	0	0	0	0	512
12	0	0	0	0	512
13	0	0	0	0	512
14	0	0	0	0	512
15	0	0	0	0	513
0	0	0	0	0	514
1	0	0	0	0	515
2	0	0	0	0	515
3	0	0	0	0	515
4	0	0	0	0	514
5	0	0	0	0	515
6	0	0	0	0	516
7	0	0	0	0	517
8	0	0	0	0	517
9	0	0	0	0	519
10	0	0	0	0	518
11	0	0	0	0	518
12	0	0	0	0	518
13	0	0	0	0	519
14	0	0	0	0	519
15	0	0	0	0	519
0	0	0	0	0	519
1	0	0	0	0	519
2	0	0	0	0	519
3	0	0	0	0	520
4	0	0	0	0	520
5	0	0	0	0	520
6	0	0	0	0	519
7	0	0	0	0	518
8	0	0	0	0	517
9	0	0	0	0	518
10	0	0	0	0	518
11	0	0	0	0	518
12	0	0	0	0	518
13	0	0	0	0	519
14	0	0	0	0	519
15	0	0	0	0	520
0	0	0	0	0	520
1	0	0	0	0	520
2	0	0	0	0	521
3	0	0	0	0	523
4	0	0	0	0	525
5	0	0	0	0	527
6	0	0	0	0	527
7	0	0	0	0	528
8	0	0	0	0	527
9	0	0	0	0	528
10	0	0	0	0	528
11	0	0	0	0	529
12	0	0	0	0	529
13	0	0	0	0	530
14	0	0	0	0	529
15	0	0	0	0	528
0	0	0	0	0	528
1	0	0	0	0	528
2	0	0	0	0	527
3	0	0	0	0	527
4	0	0	0	0	527
5	0	0	0	0	528
6	0	0	0	0	527
7	0	0	0	0	527
8	0	0	0	0	527
9	0	0	0	0	528
10	0	0	0	0	528
11	0	0	0	0	529
12	0	0	0	0	529
13	0	0	0	0	528
14	0	0	0	0	527
15	0	0	0	0	526
0	0	0	0	0	526
1	0	0	0	0	527
2	0	0	0	0	527
3	0	0	0	0	528
4	0	0	0	0	529
5	0	0	0	0	530
6	0	0	0	0	531
7	0	0	0	0	533
8	0	0	0	0	536
9	0	0	0	0	537
10	0	0	0	0	537
11	0	0	0	0	537
12	0	0	0	0	537
13	0	0	0	0	538
14	0	0	0	0	538
15	0	0	0	0	538
0	0	0	0	0	538
1	0	0	0	0	538
2	0	0	0	0	538
3	0	0	0	0	537
4	0	0	0	0	537
5	0	0	0	0	537
6	0	0	0	0	537
7	0	0	0	0	538
8	0	0	0	0	539
9	0	0	0	0	539
10	0	0	0	0	538
11	0	0	0	0	538
12	0	0	0	0	538
13	0	0	0	0	538
14	0	0	0	0	538
15	0	0	0	0	538
0	0	0	0	0	537
1	0	0	0	0	538
2	0	0	0	0	539
3	0	0	0	0	539
4	0	0	0	0	538
5	0	0	0	0	536
6	0	0	0	0	536
7	0	0	0	0	535
8	0	0	0	0	535
9	0	0	0	0	536
10	0	0	0	0	537
11	0	0	0	0	537
12	0	0	0	0	537
13	0	0	0	0	537
14	0	0	0	0	536
15	0	0	0	0	536
0	0	0	0	0	536
1	0	0	0	0	536
2	0	0	0	0	536
3	0	0	0	0	535
4	0	0	0	0	534
5	0	0	0	0	534
6	0	0	0	0	534
7	0	0	0	0	533
8	0	0	0	0	532
9	0	0	0	0	530
10	0	0	0	0	530
11	0	0	0	0	528
12	0	0	0	0	527
13	0	0	0	0	527
14	0	0	0	0	526
15	0	0	0	0	524
0	0	0	0	0	523
1	0	0	0	0	523
2	0	0	0	0	521
3	0	0	0	0	520
4	0	0	0	0	519
5	0	0	0	0	518
6	0	0	0	0	519
7	0	0	0	0	520
8	0	0	0	0	518
9	0	0	0	0	518
10	0	0	0	0	516
11	0	0	0	0	514
12	0	0	0	0	513
13	0	0	0	0	511
14	0	0	0	0	511
15	0	0	0	0	510
0	0	0	0	0	509
1	0	0	0	0	508
2	0	0	0	0	507
3	0	0	0	0	506
4	0	0	0	0	505
5	0	0	0	0	504
6	0	0	0	0	504
7	0	0	0	0	503
8	0	0	0	0	503
9	0	0	0	0	503
10	0	0	0	0	502
11	0	0	0	0	501
12	0	0	0	0	499
13	0	0	0	0	499
14	0	0	0	0	498
15	0	0	0	0	498
0	0	0	0	0	499
1	0	0	0	0	499
2	0	0	0	0	499
3	0	0	0	0	498
4	0	0	0	0	497
5	0	0	0	0	496
6	0	0	0	0	495
7	0	0	0	0	495
8	0	0	0	0	494
9	0	0	0	0	494
10	0	0	0	0	494
11	0	0	0	0	495
12	0	0	0	0	495
13	0	0	0	0	494
14	0	0	0	0	493
15	0	0	0	0	493
0	0	0	0	0	492
1	0	0	0	0	493
2	0	0	0	0	493
3	0	0	0	0	492
4	0	0	0	0	491
5	0	0	0	0	489
6	0	0	0	0	489
7	0	0	0	0	488
8	0	0	0	0	487
9	0	0	0	0	487
10	0	0	0	0	487
11	0	0	0	0	487
12	0	0	0	0	486
13	0	0	0	0	485
14	0	0	0	0	485
15	0	0	0	0	484
0	0	0	0	0	484
1	0	0	0	0	485
2	0	0	0	0	486
3	0	0	0	0	486
4	0	0	0	0	486
5	0	0	0	0	486
6	0	0	0	0	484
7	0	0	0	0	483
8	0	0	0	0	481
9	0	0	0	0	480
10	0	0	0	0	480
11	0	0	0	0	480
12	0	0	0	0	481
13	0	0	0	0	483
14	0	0	0	0	484
15	0	0	0	0	486
0	0	0	0	0	486
1	0	0	0	0	487
2	0	0	0	0	487
3	0	0	0	0	487
4	0	0	0	0	487
5	0	0	0	0	487
6	0	0	0	0	488
7	0	0	0	0	488
8	0	0	0	0	487
9	0	0	0	0	487
10	0	0	0	0	487
11	0	0	0	0	487
12	0	0	0	0	486
13	0	0	0	0	486
14	0	0	0	0	486
15	0	0	0	0	485
0	0	0	0	0	485
1	0	0	0	0	485
2	0	0	0	0	486
3	0	0	0	0	487
4	0	0	0	0	486
5	0	0	0	0	486
6	0	0	0	0	487
7	0	0	0	0	487
8	0	0	0	0	487
9	0	0	0	0	487
10	0	0	0	0	489
11	0	0	0	0	489
12	0	0	0	0	489
13	0	0	0	0	490
14	0	0	0	0	489
15	0	0	0	0	489
0	0	0	0	0	489
1	0	0	0	0	490
2	0	0	0	0	490
3	0	0	0	0	491
4	0	0	0	0	492
5	0	0	0	0	494
6	0	0	0	0	495
7	0	0	0	0	496
8	0	0	0	0	496
9	0	0	0	0	496
10	0	0	0	0	496
11	0	0	0	0	496
12	0	0	0	0	495
13	0	0	0	0	493
14	0	0	0	0	492
15	0	0	0	0	491
0	0	0	0	0	490
1	0	0	0	0	490
2	0	0	0	0	489
3	0	0	0	0	488
4	0	0	0	0	488
5	0	0	0	0	487
6	0	0	0	0	487
7	0	0	0	0	488
8	0	0	0	0	489
9	0	0	0	0	489
10	0	0	0	0	489
11	0	0	0	0	490
12	0	0	0	0	490
13	0	0	0	0	490
14	0	0	0	0	491
15	0	0	0	0	491
0	0	0	0	0	491
1	0	0	0	0	492
2	0	0	0	0	494
3	0	0	0	0	494
4	0	0	0	0	493
5	0	0	0	0	493
6	0	0	0	0	493
7	0	0	0	0	493
8	0	0	0	0	494
9	0	0	0	0	494
10	0	0	0	0	496
11	0	0	0	0	496
12	0	0	0	0	497
13	0	0	0	0	499
14	0	0	0	0	499
15	0	0	0	0	500
0	0	0	0	0	499
1	0	0	0	0	498
2	0	0	0	0	498
3	0	0	0	0	496
4	0	0	0	0	496
5	0	0	0	0	496
6	0	0	0	0	497
7	0	0	0	0	498
8	0	0	0	0	497
9	0	0	0	0	497
10	0	0	0	0	497
11	0	0	0	0	497
12	0	0	0	0	498
13	0	0	0	0	497
14	0	0	0	0	497
15	0	0	0	0	497
0	0	0	0	0	498
1	0	0	0	0	498
2	0	0	0	0	498
3	0	0	0	0	499
4	0	0	0	0	499
5	0	0	0	0	500
6	0	0	0	0	501
7	0	0	0	0	501
8	0	0	0	0	500
9	0	0	0	0	500
10	0	0	0	0	500
11	0	0	0	0	500
12	0	0	0	0	500
13	0	0	0	0	501
14	0	0	0	0	501
15	0	0	0	0	500
0	0	0	0	0	500
1	0	0	0	0	499
2	0	0	0	0	500
3	0	0	0	0	500
4	0	0	0	0	501
5	0	0	0	0	501
6	0	0	0	0	501
7	0	0	0	0	501
8	0	0	0	0	502
9	0	0	0	0	502
10	0	0	0	0	502
11	0	0	0	0	502
12	0	0	0	0	502
13	0	0	0	0	503
14	0	0	0	0	503
15	0	0	0	0	503
0	0	0	0	0	502
1	0	0	0	0	503
2	0	0	0	0	503
3	0	0	0	0	504
4	0	0	0	0	504
5	0	0	0	0	504
6	0	0	0	0	504
7	0	0	0	0	504
8	0	0	0	0	504
9	0	0	0	0	505
10	0	0	0	0	505
11	0	0	0	0	505
12	0	0	0	0	505
13	0	0	0	0	505
14	0	0	0	0	506
15	0	0	0	0	505
0	0	0	0	0	505
1	0	0	0	0	505
2	0	0	0	0	505
3	0	0	0	0	506
4	0	0	0	0	506
5	0	0	0	0	506
6	0	0	0	0	505
7	0	0	0	0	504
8	0	0	0	0	504
9	0	0	0	0	504
10	0	0	0	0	505
11	0	0	0	0	505
12	0	0	0	0	505
13	0	0	0	0	505
14	0	0	0	0	504
15	0	0	0	0	504
0	0	0	0	0	505
1	0	0	0	0	507
2	0	0	0	0	508
3	0	0	0	0	508
4	0	0	0	0	508
5	0	0	0	0	508
6	0	0	0	0	508
7	0	0	0	0	508
8	0	0	0	0	508
9	0	0	0	0	509
10	0	0	0	0	509
11	0	0	0	0	509
12	0	0	0	0	508
13	0	0	0	0	508
14	0	0	0	0	507
15	0	0	0	0	506
0	0	0	0	0	506
1	0	0	0	0	506
2	0	0	0	0	507
3	0	0	0	0	508
4	0	0	0	0	508
5	0	0	0	0	508
6	0	0	0	0	508
7	0	0	0	0	508
8	0	0	0	0	509
9	0	0	0	0	509
10	0	0	0	0	509
11	0	0	0	0	510
12	0	0	0	0	512
13	0	0	0	0	514
14	0	0	0	0	516
15	0	0	0	0	518
0	0	0	0	0	520
1	0	0	0	0	521
2	0	0	0	0	523
3	0	0	0	0	524
4	0	0	0	0	525
5	0	0	0	0	526
6	0	0	0	0	527
7	0	0	0	0	529
8	0	0	0	0	530
9	0	0	0	0	531
10	0	0	0	0	532
11	0	0	0	0	532
12	0	0	0	0	533
13	0	0	0	0	533
14	0	0	0	0	532
15	0	0	0	0	531
0	0	0	0	0	531
1	0	0	0	0	532
2	0	0	0	0	531
3	0	0	0	0	530
4	0	0	0	0	529
5	0	0	0	0	528
6	0	0	0	0	526
7	0	0	0	0	525
8	0	0	0	0	524
9	0	0	0	0	523
10	0	0	0	0	521
11	0	0	0	0	521
12	0	0	0	0	520
13	0	0	0	0	520
14	0	0	0	0	519
15	0	0	0	0	519
0	0	0	0	0	518
1	0	0	0	0	515
2	0	0	0	0	514
3	0	0	0	0	512
4	0	0	0	0	510
5	0	0	0	0	509
6	0	0	0	0	508
7	0	0	0	0	508
8	0	0	0	0	507
9	0	0	0	0	507
10	0	0	0	0	506
11	0	0	0	0	504
12	0	0	0	0	504
13	0	0	0	0	503
14	0	0	0	0	503
15	0	0	0	0	502
0	0	0	0	0	501
1	0	0	0	0	500
2	0	0	0	0	500
3	0	0	0	0	499
4	0	0	0	0	499
5	0	0	0	0	498
6	0	0	0	0	497
7	0	0	0	0	496
8	0	0	0	0	495
9	0	0	0	0	495
10	0	0	0	0	494
11	0	0	0	0	493
12	0	0	0	0	492
13	0	0	0	0	492
14	0	0	0	0	493
15	0	0	0	0	493
0	0	0	0	0	493
1	0	0	0	0	493
2	0	0	0	0	493
3	0	0	0	0	493
4	0	0	0	0	494
5	0	0	0	0	494
6	0	0	0	0	494
7	0	0	0	0	493
8	0	0	0	0	493
9	0	0	0	0	492
10	0	0	0	0	492
11	0	0	0	0	492
12	0	0	0	0	492
13	0	0	0	0	492
14	0	0	0	0	492
15	0	0	0	0	492
0	0	0	0	0	492
1	0	0	0	0	492
2	0	0	0	0	493
3	0	0	0	0	493
4	0	0	0	0	492
5	0	0	0	0	492
6	0	0	0	0	492
7	0	0	0	0	492
8	0	0	0	0	491
9	0	0	0	0	489
10	0	0	0	0	488
11	0	0	0	0	487
12	0	0	0	0	487
13	0	0	0	0	486
14	0	0	0	0	485
15	0	0	0	0	483
0	0	0	0	0	482
1	0	0	0	0	480
2	0	0	0	0	478
3	0	0	0	0	476
4	0	0	0	0	476
5	0	0	0	0	475
6	0	0	0	0	475
7	0	0	0	0	474
8	0	0	0	0	474
9	0	0	0	0	476
10	0	0	0	0	478
11	0	0	0	0	481
12	0	0	0	0	485
13	0	0	0	0	491
14	0	0	0	0	497
15	0	0	0	0	504
0	0	0	0	0	513
1	0	0	0	0	520
2	0	0	0	0	530
3	0	0	0	0	542
4	0	0	0	0	553
5	0	0	0	0	566
6	0	0	0	0	581
7	0	0	0	0	599
8	0	0	0	0	618
9	0	0	0	0	639
10	0	0	0	0	662
11	0	0	0	0	683
12	0	0	0	0	701
13	0	0	0	0	713
14	0	0	0	0	719
15	0	0	0	0	719
0	0	0	0	0	713
1	0	0	0	0	703
2	0	0	0	0	690
3	0	0	0	0	679
4	0	0	0	0	667
5	0	0	0	0	652
6	0	0	0	0	637
7	0	0	0	0	617
8	0	0	0	0	594
9	0	0	0	0	571
10	0	0	0	0	543
11	0	0	0	0	513
12	0	0	0	0	485
13	0	0	0	0	457
14	0	0	0	0	429
15	0	0	0	0	404
0	0	0	0	0	385
1	0	0	0	0	370
2	0	0	0	0	355
3	0	0	0	0	345
4	0	0	0	0	338
5	0	0	0	0	334
6	0	0	0	0	333
7	0	0	0	0	334
8	0	0	0	0	336
9	0	0	0	0	338
10	0	0	0	0	340
11	0	0	0	0	344
12	0	0	0	0	349
13	0	0	0	0	355
14	0	0	0	0	361
15	0	0	0	0	370
0	0	0	0	0	380
1	0	0	0	0	390
2	0	0	0	0	400
3	0	0	0	0	409
4	0	0	0	0	418
5	0	0	0	0	426
6	0	0	0	0	433
7	0	0	0	0	439
8	0	0	0	0	445
9	0	0	0	0	451
10	0	0	0	0	457
11	0	0	0	0	464
12	0	0	0	0	470
13	0	0	0	0	474
14	0	0	0	0	477
15	0	0	0	0	480
0	0	0	0	0	484
1	0	0	0	0	487
2	0	0	0	0	489
3	0	0	0	0	492
4	0	0	0	0	495
5	0	0	0	0	496
6	0	0	0	0	498
7	0	0	0	0	500
8	0	0	0	0	502
9	0	0	0	0	503
10	0	0	0	0	504
11	0	0	0	0	505
12	0	0	0	0	506
13	0	0	0	0	507
14	0	0	0	0	508
15	0	0	0	0	508
0	0	0	0	0	508
1	0	0	0	0	508
2	0	0	0	0	509
3	0	0	0	0	509
4	0	0	0	0	509
5	0	0	0	0	510
6	0	0	0	0	511
7	0	0	0	0	512
8	0	0	0	0	513
9	0	0	0	0	513
10	0	0	0	0	513
11	0	0	0	0	513
12	0	0	0	0	513
13	0	0	0	0	513
14	0	0	0	0	513
15	0	0	0	0	513
0	0	0	0	0	513
1	0	0	0	0	512
2	0	0	0	0	512
3	0	0	0	0	512
4	0	0	0	0	513
5	0	0	0	0	514
6	0	0	0	0	514
7	0	0	0	0	514
8	0	0	0	0	514
9	0	0	0	0	515
10	0	0	0	0	515
11	0	0	0	0	516
12	0	0	0	0	516
13	0	0	0	0	516
14	0	0	0	0	517
15	0	0	0	0	519
0	0	0	0	0	519
1	0	0	0	0	519
2	0	0	0	0	518
3	0	0	0	0	518
4	0	0	0	0	518
5	0	0	0	0	518
6	0	0	0	0	518
7	0	0	0	0	517
8	0	0	0	0	518
9	0	0	0	0	518
10	0	0	0	0	518
11	0	0	0	0	518
12	0	0	0	0	518
13	0	0	0	0	519
14	0	0	0	0	519
15	0	0	0	0	520
0	0	0	0	0	521
1	0	0	0	0	521
2	0	0	0	0	521
3	0	0	0	0	520
4	0	0	0	0	520
5	0	0	0	0	519
6	0	0	0	0	519
7	0	0	0	0	520
8	0	0	0	0	520
9	0	0	0	0	521
10	0	0	0	0	521
11	0	0	0	0	520
12	0	0	0	0	521
13	0	0	0	0	521
14	0	0	0	0	521
15	0	0	0	0	523
0	0	0	0	0	523
1	0	0	0	0	523
2	0	0	0	0	523
3	0	0	0	0	523
4	0	0	0	0	523
5	0	0	0	0	523
6	0	0	0	0	524
7	0	0	0	0	525
8	0	0	0	0	526
9	0	0	0	0	526
10	0	0	0	0	527
11	0	0	0	0	527
12	0	0	0	0	527
13	0	0	0	0	527
14	0	0	0	0	526
15	0	0	0	0	526
0	0	0	0	0	526
1	0	0	0	0	526
2	0	0	0	0	526
3	0	0	0	0	527
4	0	0	0	0	527
5	0	0	0	0	528
6	0	0	0	0	528
7	0	0	0	0	528
8	0	0	0	0	528
9	0	0	0	0	528
10	0	0	0	0	529
11	0	0	0	0	530
12	0	0	0	0	530
13	0	0	0	0	530
14	0	0	0	0	531
15	0	0	0	0	531
0	0	0	0	0	532
1	0	0	0	0	533
2	0	0	0	0	534
3	0	0	0	0	535
4	0	0	0	0	535
5	0	0	0	0	535
6	0	0	0	0	535
7	0	0	0	0	535
8	0	0	0	0	536
9	0	0	0	0	536
10	0	0	0	0	535
11	0	0	0	0	536
12	0	0	0	0	536
13	0	0	0	0	536
14	0	0	0	0	536
15	0	0	0	0	537
0	0	0	0	0	538
1	0	0	0	0	539
2	0	0	0	0	539
3	0	0	0	0	538
4	0	0	0	0	538
5	0	0	0	0	537
6	0	0	0	0	537
7	0	0	0	0	537
8	0	0	0	0	537
9	0	0	0	0	536
10	0	0	0	0	536
11	0	0	0	0	537
12	0	0	0	0	537
13	0	0	0	0	539
14	0	0	0	0	539
15	0	0	0	0	539
0	0	0	0	0	538
1	0	0	0	0	537
2	0	0	0	0	538
3	0	0	0	0	536
4	0	0	0	0	535
5	0	0	0	0	534
6	0	0	0	0	532
7	0	0	0	0	532
8	0	0	0	0	532
9	0	0	0	0	532
10	0	0	0	0	532
11	0	0	0	0	531
12	0	0	0	0	531
13	0	0	0	0	531
14	0	0	0	0	530
15	0	0	0	0	530
0	0	0	0	0	528
1	0	0	0	0	529
2	0	0	0	0	528
3	0	0	0	0	527
4	0	0	0	0	527
5	0	0	0	0	525
6	0	0	0	0	524
7	0	0	0	0	523
8	0	0	0	0	522
9	0	0	0	0	521
10	0	0	0	0	521
11	0	0	0	0	522
12	0	0	0	0	522
13	0	0	0	0	522
14	0	0	0	0	522
15	0	0	0	0	520
0	0	0	0	0	519
1	0	0	0	0	518
2	0	0	0	0	517
3	0	0	0	0	516
4	0	0	0	0	515
5	0	0	0	0	515
6	0	0	0	0	513
7	0	0	0	0	513
8	0	0	0	0	513
9	0	0	0	0	512
10	0	0	0	0	511
11	0	0	0	0	509
12	0	0	0	0	509
13	0	0	0	0	509
14	0	0	0	0	508
15	0	0	0	0	507
0	0	0	0	0	505
1	0	0	0	0	504
2	0	0	0	0	503
3	0	0	0	0	503
4	0	0	0	0	503
5	0	0	0	0	502
6	0	0	0	0	501
7	0	0	0	0	500
8	0	0	0	0	498
9	0	0	0	0	497
10	0	0	0	0	496
11	0	0	0	0	495
12	0	0	0	0	494
13	0	0	0	0	494
14	0	0	0	0	493
15	0	0	0	0	492
0	0	0	0	0	492
1	0	0	0	0	492
2	0	0	0	0	490
3	0	0	0	0	489
4	0	0	0	0	489
5	0	0	0	0	488
6	0	0	0	0	488
7	0	0	0	0	487
8	0	0	0	0	487
9	0	0	0	0	486
10	0	0	0	0	486
11	0	0	0	0	484
12	0	0	0	0	483
13	0	0	0	0	483
14	0	0	0	0	482
15	0	0	0	0	481
0	0	0	0	0	481
1	0	0	0	0	480
2	0	0	0	0	479
3	0	0	0	0	479
4	0	0	0	0	479
5	0	0	0	0	479
6	0	0	0	0	479
7	0	0	0	0	479
8	0	0	0	0	478
9	0	0	0	0	478
10	0	0	0	0	477
11	0	0	0	0	476
12	0	0	0	0	477
13	0	0	0	0	477
14	0	0	0	0	477
15	0	0	0	0	477
0	0	0	0	0	477
1	0	0	0	0	478
2	0	0	0	0	477
3	0	0	0	0	478
4	0	0	0	0	477
5	0	0	0	0	477
6	0	0	0	0	478
7	0	0	0	0	478
8	0	0	0	0	478
9	0	0	0	0	477
10	0	0	0	0	478
11	0	0	0	0	479
12	0	0	0	0	480
13	0	0	0	0	481
14	0	0	0	0	483
15	0	0	0	0	483
0	0	0	0	0	483
1	0	0	0	0	482
2	0	0	0	0	482
3	0	0	0	0	482
4	0	0	0	0	482
5	0	0	0	0	482
6	0	0	0	0	482
7	0	0	0	0	481
8	0	0	0	0	481
9	0	0	0	0	480
10	0	0	0	0	480
11	0	0	0	0	479
12	0	0	0	0	479
13	0	0	0	0	479
14	0	0	0	0	480
15	0	0	0	0	480
0	0	0	0	0	480
1	0	0	0	0	480
2	0	0	0	0	480
3	0	0	0	0	481
4	0	0	0	0	481
5	0	0	0	0	482
6	0	0	0	0	482
7	0	0	0	0	483
8	0	0	0	0	483
9	0	0	0	0	482
10	0	0	0	0	483
11	0	0	0	0	485
12	0	0	0	0	484
13	0	0	0	0	485
14	0	0	0	0	486
15	0	0	0	0	485
0	0	0	0	0	484
1	0	0	0	0	484
2	0	0	0	0	485
3	0	0	0	0	485
4	0	0	0	0	486
5	0	0	0	0	486
6	0	0	0	0	487
7	0	0	0	0	487
8	0	0	0	0	488
9	0	0	0	0	489
10	0	0	0	0	490
11	0	0	0	0	490
12	0	0	0	0	490
13	0	0	0	0	491
14	0	0	0	0	492
15	0	0	0	0	492
0	0	0	0	0	492
1	0	0	0	0	492
2	0	0	0	0	491
3	0	0	0	0	491
4	0	0	0	0	491
5	0	0	0	0	492
6	0	0	0	0	491
7	0	0	0	0	491
8	0	0	0	0	490
9	0	0	0	0	489
10	0	0	0	0	490
11	0	0	0	0	491
12	0	0	0	0	491
13	0	0	0	0	491
14	0	0	0	0	491
15	0	0	0	0	493
0	0	0	0	0	494
1	0	0	0	0	495
2	0	0	0	0	495
3	0	0	0	0	495
4	0	0	0	0	495
5	0	0	0	0	496
6	0	0	0	0	496
7	0	0	0	0	495
8	0	0	0	0	495
9	0	0	0	0	495
10	0	0	0	0	495
11	0	0	0	0	496
12	0	0	0	0	496
13	0	0	0	0	497
14	0	0	0	0	496
15	0	0	0	0	496
0	0	0	0	0	497
1	0	0	0	0	497
2	0	0	0	0	498
3	0	0	0	0	499
4	0	0	0	0	499
5	0	0	0	0	500
6	0	0	0	0	500
7	0	0	0	0	500
8	0	0	0	0	499
9	0	0	0	0	499
10	0	0	0	0	499
11	0	0	0	0	498
12	0	0	0	0	497
13	0	0	0	0	497
14	0	0	0	0	496
15	0	0	0	0	497
0	0	0	0	0	497
1	0	0	0	0	498
2	0	0	0	0	498
3	0	0	0	0	498
4	0	0	0	0	499
5	0	0	0	0	499
6	0	0	0	0	499
7	0	0	0	0	499
8	0	0	0	0	499
9	0	0	0	0	499
10	0	0	0	0	499
11	0	0	0	0	499
12	0	0	0	0	499
13	0	0	0	0	498
14	0	0	0	0	499
15	0	0	0	0	499
0	0	0	0	0	501
1	0	0	0	0	502
2	0	0	0	0	502
3	0	0	0	0	503
4	0	0	0	0	503
5	0	0	0	0	502
6	0	0	0	0	501
7	0	0	0	0	501
8	0	0	0	0	502
9	0	0	0	0	503
10	0	0	0	0	503
11	0	0	0	0	504
12	0	0	0	0	504
13	0	0	0	0	504
14	0	0	0	0	504
15	0	0	0	0	504
0	0	0	0	0	503
1	0	0	0	0	502
2	0	0	0	0	502
3	0	0	0	0	502
4	0	0	0	0	504
5	0	0	0	0	504
6	0	0	0	0	504
7	0	0	0	0	504
8	0	0	0	0	504
9	0	0	0	0	504
10	0	0	0	0	504
11	0	0	0	0	505
12	0	0	0	0	505
13	0	0	0	0	505
14	0	0	0	0	505
15	0	0	0	0	504
0	0	0	0	0	503
1	0	0	0	0	502
2	0	0	0	0	501
3	0	0	0	0	503
4	0	0	0	0	504
5	0	0	0	0	504
6	0	0	0	0	504
7	0	0	0	0	505
8	0	0	0	0	505
9	0	0	0	0	505
10	0	0	0	0	505
11	0	0	0	0	506
12	0	0	0	0	507
13	0	0	0	0	507
14	0	0	0	0	507
15	0	0	0	0	507
0	0	0	0	0	507
1	0	0	0	0	507
2	0	0	0	0	506
3	0	0	0	0	507
4	0	0	0	0	506
5	0	0	0	0	506
6	0	0	0	0	507
7	0	0	0	0	507
8	0	0	0	0	507
9	0	0	0	0	507
10	0	0	0	0	507
11	0	0	0	0	507
12	0	0	0	0	509
13	0	0	0	0	511
14	0	0	0	0	511
15	0	0	0	0	513
0	0	0	0	0	515
1	0	0	0	0	516
2	0	0	0	0	518
3	0	0	0	0	519
4	0	0	0	0	521
5	0	0	0	0	521
6	0	0	0	0	522
7	0	0	0	0	523
8	0	0	0	0	524
9	0	0	0	0	524
10	0	0	0	0	523
11	0	0	0	0	523
12	0	0	0	0	524
13	0	0	0	0	525
14	0	0	0	0	524
15	0	0	0	0	525
0	0	0	0	0	525
1	0	0	0	0	525
2	0	0	0	0	524
3	0	0	0	0	523
4	0	0	0	0	523
5	0	0	0	0	521
6	0	0	0	0	520
7	0	0	0	0	519
8	0	0	0	0	518
9	0	0	0	0	517
10	0	0	0	0	517
11	0	0	0	0	517
12	0	0	0	0	516
13	0	0	0	0	516
14	0	0	0	0	516
15	0	0	0	0	517
0	0	0	0	0	516
1	0	0	0	0	515
2	0	0	0	0	513
3	0	0	0	0	512
4	0	0	0	0	510
5	0	0	0	0	508
6	0	0	0	0	507
7	0	0	0	0	506
8	0	0	0	0	504
9	0	0	0	0	503
10	0	0	0	0	502
11	0	0	0	0	501
12	0	0	0	0	501
13	0	0	0	0	499
14	0	0	0	0	499
15	0	0	0	0	498
0	0	0	0	0	498
1	0	0	0	0	497
2	0	0	0	0	496
3	0	0	0	0	496
4	0	0	0	0	495
5	0	0	0	0	494
6	0	0	0	0	495
7	0	0	0	0	495
8	0	0	0	0	495
9	0	0	0	0	493
10	0	0	0	0	492
11	0	0	0	0	492
12	0	0	0	0	491
13	0	0	0	0	491
14	0	0	0	0	490
15	0	0	0	0	491
0	0	0	0	0	492
1	0	0	0	0	492
2	0	0	0	0	491
3	0	0	0	0	491
4	0	0	0	0	492
5	0	0	0	0	494
6	0	0	0	0	493
7	0	0	0	0	494
8	0	0	0	0	494
9	0	0	0	0	494
10	0	0	0	0	494
11	0	0	0	0	493
12	0	0	0	0	492
13	0	0	0	0	492
14	0	0	0	0	492
15	0	0	0	0	492
0	0	0	0	0	492
1	0	0	0	0	493
2	0	0	0	0	494
3	0	0	0	0	494
4	0	0	0	0	493
5	0	0	0	0	492
6	0	0	0	0	492
7	0	0	0	0	492
8	0	0	0	0	491
9	0	0	0	0	491
10	0	0	0	0	489
11	0	0	0	0	487
12	0	0	0	0	486
13	0	0	0	0	485
14	0	0	0	0	484
15	0	0	0	0	482
0	0	0	0	0	480
1	0	0	0	0	480
2	0	0	0	0	480
3	0	0	0	0	480
4	0	0	0	0	480
5	0	0	0	0	479
6	0	0	0	0	478
7	0	0	0	0	477
8	0	0	0	0	478
9	0	0	0	0	479
10	0	0	0	0	482
11	0	0	0	0	486
12	0	0	0	0	491
13	0	0	0	0	498
14	0	0	0	0	505
15	0	0	0	0	512
0	0	0	0	0	521
1	0	0	0	0	529
2	0	0	0	0	540
3	0	0	0	0	551
4	0	0	0	0	563
5	0	0	0	0	577
6	0	0	0	0	592
7	0	0	0	0	611
8	0	0	0	0	631
9	0	0	0	0	654
10	0	0	0	0	674
11	0	0	0	0	691
12	0	0	0	0	706
13	0	0	0	0	715
14	0	0	0	0	717
15	0	0	0	0	714
0	0	0	0	0	705
1	0	0	0	0	696
2	0	0	0	0	686
3	0	0	0	0	675
4	0	0	0	0	661
5	0	0	0	0	647
6	0	0	0	0	630
7	0	0	0	0	609
8	0	0	0	0	585
9	0	0	0	0	560
10	0	0	0	0	530
11	0	0	0	0	500
12	0	0	0	0	470
13	0	0	0	0	441
14	0	0	0	0	416
15	0	0	0	0	396
0	0	0	0	0	381
1	0	0	0	0	366
2	0	0	0	0	355
3	0	0	0	0	347
4	0	0	0	0	342
5	0	0	0	0	340
6	0	0	0	0	340
7	0	0	0	0	342
8	0	0	0	0	344
9	0	0	0	0	347
10	0	0	0	0	350
11	0	0	0	0	354
12	0	0	0	0	359
13	0	0	0	0	365
14	0	0	0	0	373
15	0	0	0	0	381
0	0	0	0	0	390
1	0	0	0	0	399
2	0	0	0	0	407
3	0	0	0	0	413
4	0	0	0	0	420
5	0	0	0	0	427
6	0	0	0	0	433
7	0	0	0	0	439
8	0	0	0	0	445
9	0	0	0	0	450
10	0	0	0	0	455
11	0	0	0	0	461
12	0	0	0	0	465
13	0	0	0	0	470
14	0	0	0	0	475
15	0	0	0	0	480
0	0	0	0	0	483
1	0	0	0	0	487
2	0	0	0	0	489
3	0	0	0	0	490
4	0	0	0	0	492
5	0	0	0	0	494
6	0	0	0	0	496
7	0	0	0	0	499
8	0	0	0	0	501
9	0	0	0	0	502
10	0	0	0	0	503
11	0	0	0	0	504
12	0	0	0	0	505
13	0	0	0	0	506
14	0	0	0	0	506
15	0	0	0	0	506
0	0	0	0	0	506
1	0	0	0	0	507
2	0	0	0	0	507
3	0	0	0	0	506
4	0	0	0	0	506
5	0	0	0	0	506
6	0	0	0	0	506
7	0	0	0	0	506
8	0	0	0	0	507
9	0	0	0	0	508
10	0	0	0	0	510
11	0	0	0	0	511
12	0	0	0	0	512
13	0	0	0	0	512
14	0	0	0	0	512
15	0	0	0	0	512
0	0	0	0	0	512
1	0	0	0	0	513
2	0	0	0	0	513
3	0	0	0	0	514
4	0	0	0	0	514
5	0	0	0	0	514
6	0	0	0	0	515
7	0	0	0	0	515
8	0	0	0	0	515
9	0	0	0	0	515
10	0	0	0	0	515
11	0	0	0	0	516
12	0	0	0	0	516
13	0	0	0	0	516
14	0	0	0	0	515
15	0	0	0	0	515
0	0	0	0	0	516
1	0	0	0	0	516
2	0	0	0	0	518
3	0	0	0	0	518
4	0	0	0	0	517
5	0	0	0	0	517
6	0	0	0	0	517
7	0	0	0	0	517
8	0	0	0	0	517
9	0	0	0	0	517
10	0	0	0	0	518
11	0	0	0	0	518
12	0	0	0	0	518
13	0	0	0	0	519
14	0	0	0	0	519
15	0	0	0	0	518
0	0	0	0	0	519
1	0	0	0	0	519
2	0	0	0	0	519
3	0	0	0	0	518
4	0	0	0	0	519
5	0	0	0	0	520
6	0	0	0	0	521
7	0	0	0	0	522
8	0	0	0	0	522
9	0	0	0	0	522
10	0	0	0	0	522
11	0	0	0	0	522
12	0	0	0	0	522
13	0	0	0	0	521
14	0	0	0	0	522
15	0	0	0	0	521
0	0	0	0	0	522
1	0	0	0	0	522
2	0	0	0	0	522
3	0	0	0	0	524
4	0	0	0	0	524
5	0	0	0	0	524
6	0	0	0	0	524
7	0	0	0	0	523
8	0	0	0	0	524
9	0	0	0	0	524
10	0	0	0	0	525
11	0	0	0	0	526
12	0	0	0	0	526
13	0	0	0	0	526
14	0	0	0	0	526
15	0	0	0	0	526
0	0	0	0	0	525
1	0	0	0	0	525
2	0	0	0	0	526
3	0	0	0	0	526
4	0	0	0	0	526
5	0	0	0	0	527
6	0	0	0	0	527
7	0	0	0	0	529
8	0	0	0	0	529
9	0	0	0	0	529
10	0	0	0	0	529
11	0	0	0	0	530
12	0	0	0	0	530
13	0	0	0	0	531
14	0	0	0	0	531
15	0	0	0	0	531
0	0	0	0	0	531
1	0	0	0	0	531
2	0	0	0	0	531
3	0	0	0	0	532
4	0	0	0	0	532
5	0	0	0	0	532
6	0	0	0	0	533
7	0	0	0	0	533
8	0	0	0	0	534
9	0	0	0	0	535
10	0	0	0	0	535
11	0	0	0	0	535
12	0	0	0	0	535
13	0	0	0	0	534
14	0	0	0	0	534
15	0	0	0	0	535
0	0	0	0	0	537
1	0	0	0	0	537
2	0	0	0	0	538
3	0	0	0	0	538
4	0	0	0	0	538
5	0	0	0	0	540
6	0	0	0	0	540
7	0	0	0	0	540
8	0	0	0	0	541
9	0	0	0	0	540
10	0	0	0	0	540
11	0	0	0	0	540
12	0	0	0	0	539
13	0	0	0	0	538
14	0	0	0	0	537
15	0	0	0	0	538
0	0	0	0	0	537
1	0	0	0	0	536
2	0	0	0	0	535
3	0	0	0	0	535
4	0	0	0	0	536
5	0	0	0	0	534
6	0	0	0	0	533
7	0	0	0	0	531
8	0	0	0	0	531
9	0	0	0	0	533
10	0	0	0	0	533
11	0	0	0	0	531
12	0	0	0	0	531
13	0	0	0	0	530
14	0	0	0	0	529
15	0	0	0	0	528
0	0	0	0	0	528
1	0	0	0	0	527
2	0	0	0	0	526
3	0	0	0	0	526
4	0	0	0	0	524
5	0	0	0	0	524
6	0	0	0	0	523
7	0	0	0	0	523
8	0	0	0	0	522
9	0	0	0	0	521
10	0	0	0	0	520
11	0	0	0	0	520
12	0	0	0	0	520
13	0	0	0	0	520
14	0	0	0	0	518
15	0	0	0	0	518
0	0	0	0	0	517
1	0	0	0	0	517
2	0	0	0	0	516
3	0	0	0	0	515
4	0	0	0	0	515
5	0	0	0	0	514
6	0	0	0	0	512
7	0	0	0	0	512
8	0	0	0	0	512
9	0	0	0	0	512
10	0	0	0	0	511
11	0	0	0	0	510
12	0	0	0	0	510
13	0	0	0	0	509
14	0	0	0	0	508
15	0	0	0	0	507
0	0	0	0	0	506
1	0	0	0	0	505
2	0	0	0	0	504
3	0	0	0	0	504
4	0	0	0	0	504
5	0	0	0	0	503
6	0	0	0	0	501
7	0	0	0	0	499
8	0	0	0	0	498
9	0	0	0	0	497
10	0	0	0	0	496
11	0	0	0	0	496
12	0	0	0	0	495
13	0	0	0	0	493
14	0	0	0	0	492
15	0	0	0	0	492
0	0	0	0	0	492
1	0	0	0	0	492
2	0	0	0	0	493
3	0	0	0	0	492
4	0	0	0	0	491
5	0	0	0	0	490
6	0	0	0	0	489
7	0	0	0	0	488
8	0	0	0	0	487
9	0	0	0	0	486
10	0	0	0	0	486
11	0	0	0	0	486
12	0	0	0	0	486
13	0	0	0	0	486
14	0	0	0	0	484
15	0	0	0	0	484
0	0	0	0	0	484
1	0	0	0	0	484
2	0	0	0	0	485
3	0	0	0	0	484
4	0	0	0	0	483
5	0	0	0	0	483
6	0	0	0	0	483
7	0	0	0	0	482
8	0	0	0	0	481
9	0	0	0	0	481
10	0	0	0	0	481
11	0	0	0	0	482
12	0	0	0	0	483
13	0	0	0	0	483
14	0	0	0	0	484
15	0	0	0	0	484
0	0	0	0	0	484
1	0	0	0	0	484
2	0	0	0	0	483
3	0	0	0	0	483
4	0	0	0	0	483
5	0	0	0	0	483
6	0	0	0	0	482
7	0	0	0	0	481
8	0	0	0	0	481
9	0	0	0	0	480
10	0	0	0	0	480
11	0	0	0	0	480
12	0	0	0	0	480
13	0	0	0	0	481
14	0	0	0	0	481
15	0	0	0	0	481
0	0	0	0	0	481
1	0	0	0	0	481
2	0	0	0	0	481
3	0	0	0	0	482
4	0	0	0	0	484
5	0	0	0	0	485
6	0	0	0	0	485
7	0	0	0	0	485
8	0	0	0	0	486
9	0	0	0	0	486
10	0	0	0	0	486
11	0	0	0	0	486
12	0	0	0	0	487
13	0	0	0	0	486
14	0	0	0	0	485
15	0	0	0	0	485
0	0	0	0	0	486
1	0	0	0	0	485
2	0	0	0	0	485
3	0	0	0	0	485
4	0	0	0	0	485
5	0	0	0	0	486
6	0	0	0	0	487
7	0	0	0	0	487
8	0	0	0	0	486
9	0	0	0	0	486
10	0	0	0	0	486
11	0	0	0	0	485
12	0	0	0	0	485
13	0	0	0	0	486
14	0	0	0	0	486
15	0	0	0	0	487
0	0	0	0	0	487
1	0	0	0	0	488
2	0	0	0	0	487
3	0	0	0	0	487
4	0	0	0	0	488
5	0	0	0	0	488
6	0	0	0	0	489
7	0	0	0	0	490
8	0	0	0	0	491
9	0	0	0	0	491
10	0	0	0	0	493
11	0	0	0	0	493
12	0	0	0	0	494
13	0	0	0	0	494
14	0	0	0	0	494
15	0	0	0	0	495
0	0	0	0	0	494
1	0	0	0	0	494
2	0	0	0	0	493
3	0	0	0	0	493
4	0	0	0	0	494
5	0	0	0	0	493
6	0	0	0	0	493
7	0	0	0	0	493
8	0	0	0	0	493
9	0	0	0	0	493
10	0	0	0	0	493
11	0	0	0	0	493
12	0	0	0	0	493
13	0	0	0	0	494
14	0	0	0	0	495
15	0	0	0	0	495
0	0	0	0	0	495
1	0	0	0	0	495
2	0	0	0	0	496
3	0	0	0	0	496
4	0	0	0	0	496
5	0	0	0	0	496
6	0	0	0	0	497
7	0	0	0	0	497
8	0	0	0	0	496
9	0	0	0	0	496
10	0	0	0	0	495
11	0	0	0	0	495
12	0	0	0	0	494
13	0	0	0	0	495
14	0	0	0	0	495
15	0	0	0	0	496
0	0	0	0	0	497
1	0	0	0	0	497
2	0	0	0	0	498
3	0	0	0	0	499
4	0	0	0	0	500
5	0	0	0	0	499
6	0	0	0	0	499
7	0	0	0	0	499
8	0	0	0	0	499
9	0	0	0	0	500
10	0	0	0	0	500
11	0	0	0	0	500
12	0	0	0	0	501
13	0	0	0	0	501
14	0	0	0	0	501
15	0	0	0	0	500
0	0	0	0	0	500
1	0	0	0	0	501
2	0	0	0	0	500
3	0	0	0	0	500
4	0	0	0	0	500
5	0	0	0	0	500
6	0	0	0	0	502
7	0	0	0	0	501
8	0	0	0	0	502
9	0	0	0	0	502
10	0	0	0	0	503
11	0	0	0	0	503
12	0	0	0	0	503
13	0	0	0	0	502
14	0	0	0	0	502
15	0	0	0	0	502
0	0	0	0	0	502
1	0	0	0	0	502
2	0	0	0	0	502
3	0	0	0	0	502
4	0	0	0	0	502
5	0	0	0	0	503
6	0	0	0	0	503
7	0	0	0	0	503
8	0	0	0	0	503
9	0	0	0	0	503
10	0	0	0	0	504
11	0	0	0	0	503
12	0	0	0	0	503
13	0	0	0	0	503
14	0	0	0	0	504
15	0	0	0	0	506
0	0	0	0	0	506
1	0	0	0	0	506
2	0	0	0	0	506
3	0	0	0	0	505
4	0	0	0	0	505
5	0	0	0	0	504
6	0	0	0	0	504
7	0	0	0	0	503
8	0	0	0	0	503
9	0	0	0	0	503
10	0	0	0	0	503
11	0	0	0	0	504
12	0	0	0	0	504
13	0	0	0	0	504
14	0	0	0	0	504
15	0	0	0	0	504
0	0	0	0	0	504
1	0	0	0	0	504
2	0	0	0	0	504
3	0	0	0	0	504
4	0	0	0	0	504
5	0	0	0	0	505
6	0	0	0	0	505
7	0	0	0	0	505
8	0	0	0	0	505
9	0	0	0	0	505
10	0	0	0	0	505
11	0	0	0	0	505
12	0	0	0	0	505
13	0	0	0	0	505
14	0	0	0	0	505
15	0	0	0	0	505
0	0	0	0	0	506
1	0	0	0	0	506
2	0	0	0	0	507
3	0	0	0	0	508
4	0	0	0	0	508
5	0	0	0	0	509
6	0	0	0	0	509
7	0	0	0	0	510
8	0	0	0	0	511
9	0	0	0	0	512
10	0	0	0	0	513
11	0	0	0	0	515
12	0	0	0	0	516
13	0	0	0	0	518
14	0	0	0	0	519
15	0	0	0	0	520
0	0	0	0	0	522
1	0	0	0	0	523
2	0	0	0	0	524
3	0	0	0	0	525
4	0	0	0	0	526
5	0	0	0	0	527
6	0	0	0	0	527
7	0	0	0	0	527
8	0	0	0	0	527
9	0	0	0	0	527
10	0	0	0	0	527
11	0	0	0	0	527
12	0	0	0	0	526
13	0	0	0	0	526
14	0	0	0	0	526
15	0	0	0	0	525
0	0	0	0	0	525
1	0	0	0	0	524
2	0	0	0	0	523
3	0	0	0	0	523
4	0	0	0	0	522
5	0	0	0	0	521
6	0	0	0	0	521
7	0	0	0	0	521
8	0	0	0	0	521
9	0	0	0	0	520
10	0	0	0	0	519
11	0	0	0	0	518
12	0	0	0	0	516
13	0	0	0	0	514
14	0	0	0	0	512
15	0	0	0	0	511
0	0	0	0	0	510
1	0	0	0	0	509
2	0	0	0	0	507
3	0	0	0	0	506
4	0	0	0	0	506
5	0	0	0	0	505
6	0	0	0	0	505
7	0	0	0	0	505
8	0	0	0	0	504
9	0	0	0	0	504
10	0	0	0	0	503
11	0	0	0	0	502
12	0	0	0	0	501
13	0	0	0	0	499
14	0	0	0	0	498
15	0	0	0	0	498
0	0	0	0	0	497
1	0	0	0	0	497
2	0	0	0	0	496
3	0	0	0	0	495
4	0	0	0	0	495
5	0	0	0	0	494
6	0	0	0	0	495
7	0	0	0	0	495
8	0	0	0	0	496
9	0	0	0	0	496
10	0	0	0	0	496
11	0	0	0	0	497
12	0	0	0	0	497
13	0	0	0	0	497
14	0	0	0	0	497
15	0	0	0	0	497
0	0	0	0	0	496
1	0	0	0	0	495
2	0	0	0	0	495
3	0	0	0	0	495
4	0	0	0	0	495
5	0	0	0	0	494
6	0	0	0	0	494
7	0	0	0	0	494
8	0	0	0	0	494
9	0	0	0	0	493
10	0	0	0	0	493
11	0	0	0	0	493
12	0	0	0	0	493
13	0	0	0	0	493
14	0	0	0	0	492
15	0	0	0	0	492
0	0	0	0	0	492
1	0	0	0	0	492
2	0	0	0	0	492
3	0	0	0	0	492
4	0	0	0	0	491
5	0	0	0	0	491
6	0	0	0	0	489
7	0	0	0	0	487
8	0	0	0	0	485
9	0	0	0	0	483
10	0	0	0	0	482
11	0	0	0	0	481
12	0	0	0	0	480
13	0	0	0	0	479
14	0	0	0	0	478
15	0	0	0	0	478
0	0	0	0	0	477
1	0	0	0	0	476
2	0	0	0	0	477
3	0	0	0	0	479
4	0	0	0	0	480
5	0	0	0	0	485
6	0	0	0	0	491
7	0	0	0	0	497
8	0	0	0	0	505
9	0	0	0	0	512
10	0	0	0	0	519
11	0	0	0	0	526
12	0	0	0	0	535
13	0	0	0	0	545
14	0	0	0	0	556
15	0	0	0	0	571
0	0	0	0	0	585
1	0	0	0	0	604
2	0	0	0	0	624
3	0	0	0	0	646
4	0	0	0	0	668
5	0	0	0	0	686
6	0	0	0	0	702
7	0	0	0	0	713
8	0	0	0	0	718
9	0	0	0	0	718
10	0	0	0	0	711
11	0	0	0	0	702
12	0	0	0	0	693
13	0	0	0	0	683
14	0	0	0	0	671
15	0	0	0	0	658
0	0	0	0	0	643
1	0	0	0	0	624
2	0	0	0	0	602
3	0	0	0	0	578
4	0	0	0	0	551
5	0	0	0	0	521
6	0	0	0	0	492
7	0	0	0	0	463
8	0	0	0	0	436
9	0	0	0	0	415
10	0	0	0	0	399
11	0	0	0	0	383
12	0	0	0	0	368
13	0	0	0	0	357
14	0	0	0	0	350
15	0	0	0	0	347
0	0	0	0	0	345
1	0	0	0	0	346
2	0	0	0	0	348
3	0	0	0	0	350
4	0	0	0	0	352
5	0	0	0	0	356
6	0	0	0	0	359
7	0	0	0	0	365
8	0	0	0	0	372
9	0	0	0	0	379
10	0	0	0	0	387
11	0	0	0	0	395
12	0	0	0	0	403
13	0	0	0	0	412
14	0	0	0	0	420
15	0	0	0	0	428
0	0	0	0	0	434
1	0	0	0	0	441
2	0	0	0	0	447
3	0	0	0	0	452
4	0	0	0	0	458
5	0	0	0	0	464
6	0	0	0	0	470
7	0	0	0	0	474
8	0	0	0	0	479
9	0	0	0	0	482
10	0	0	0	0	485
11	0	0	0	0	487
12	0	0	0	0	490
13	0	0	0	0	492
14	0	0	0	0	494
15	0	0	0	0	495
0	0	0	0	0	496
1	0	0	0	0	497
2	0	0	0	0	499
3	0	0	0	0	501
4	0	0	0	0	501
5	0	0	0	0	501
6	0	0	0	0	501
7	0	0	0	0	503
8	0	0	0	0	503
9	0	0	0	0	504
10	0	0	0	0	504
11	0	0	0	0	505
12	0	0	0	0	507
13	0	0	0	0	507
14	0	0	0	0	506
15	0	0	0	0	507
0	0	0	0	0	507
1	0	0	0	0	507
2	0	0	0	0	508
3	0	0	0	0	508
4	0	0	0	0	508
5	0	0	0	0	508
6	0	0	0	0	509
7	0	0	0	0	510
8	0	0	0	0	509
9	0	0	0	0	509
10	0	0	0	0	509
11	0	0	0	0	509
12	0	0	0	0	511
13	0	0	0	0	511
14	0	0	0	0	511
15	0	0	0	0	511
0	0	0	0	0	512
1	0	0	0	0	513
2	0	0	0	0	513
3	0	0	0	0	514
4	0	0	0	0	514
5	0	0	0	0	513
6	0	0	0	0	514
7	0	0	0	0	514
8	0	0	0	0	514
9	0	0	0	0	515
10	0	0	0	0	515
11	0	0	0	0	515
12	0	0	0	0	515
13	0	0	0	0	514
14	0	0	0	0	513
15	0	0	0	0	513
0	0	0	0	0	515
1	0	0	0	0	516
2	0	0	0	0	516
3	0	0	0	0	516
4	0	0	0	0	516
5	0	0	0	0	517
6	0	0	0	0	517
7	0	0	0	0	517
8	0	0	0	0	516
9	0	0	0	0	516
10	0	0	0	0	516
11	0	0	0	0	517
12	0	0	0	0	518
13	0	0	0	0	518
14	0	0	0	0	518
15	0	0	0	0	518
0	0	0	0	0	517
1	0	0	0	0	518
2	0	0	0	0	518
3	0	0	0	0	518
4	0	0	0	0	518
5	0	0	0	0	518
6	0	0	0	0	519
7	0	0	0	0	519
8	0	0	0	0	520
9	0	0	0	0	521
10	0	0	0	0	521
11	0	0	0	0	520
12	0	0	0	0	520
13	0	0	0	0	521
14	0	0	0	0	521
15	0	0	0	0	521
0	0	0	0	0	521
1	0	0	0	0	521
2	0	0	0	0	521
3	0	0	0	0	521
4	0	0	0	0	520
5	0	0	0	0	520
6	0	0	0	0	521
7	0	0	0	0	521
8	0	0	0	0	522
9	0	0	0	0	523
10	0	0	0	0	523
11	0	0	0	0	523
12	0	0	0	0	524
13	0	0	0	0	523
14	0	0	0	0	524
15	0	0	0	0	524
0	0	0	0	0	524
1	0	0	0	0	524
2	0	0	0	0	524
3	0	0	0	0	524
4	0	0	0	0	525
5	0	0	0	0	525
6	0	0	0	0	526
7	0	0	0	0	527
8	0	0	0	0	527
9	0	0	0	0	528
10	0	0	0	0	528
11	0	0	0	0	528
12	0	0	0	0	530
13	0	0	0	0	531
14	0	0	0	0	531
15	0	0	0	0	532
0	0	0	0	0	533
1	0	0	0	0	533
2	0	0	0	0	532
3	0	0	0	0	533
4	0	0	0	0	532
5	0	0	0	0	532
6	0	0	0	0	533
7	0	0	0	0	533
8	0	0	0	0	535
9	0	0	0	0	535
10	0	0	0	0	535
11	0	0	0	0	536
12	0	0	0	0	536
13	0	0	0	0	536
14	0	0	0	0	536
15	0	0	0	0	536
0	0	0	0	0	537
1	0	0	0	0	536
2	0	0	0	0	536
3	0	0	0	0	536
4	0	0	0	0	536
5	0	0	0	0	536
6	0	0	0	0	534
7	0	0	0	0	533
8	0	0	0	0	532
9	0	0	0	0	532
10	0	0	0	0	532
11	0	0	0	0	532
12	0	0	0	0	532
13	0	0	0	0	530
14	0	0	0	0	529
15	0	0	0	0	529
0	0	0	0	0	529
1	0	0	0	0	529
2	0	0	0	0	529
3	0	0	0	0	529
4	0	0	0	0	530
5	0	0	0	0	530
6	0	0	0	0	529
7	0	0	0	0	528
8	0	0	0	0	528
9	0	0	0	0	528
10	0	0	0	0	527
11	0	0	0	0	527
12	0	0	0	0	526
13	0	0	0	0	524
14	0	0	0	0	524
15	0	0	0	0	524
0	0	0	0	0	523
1	0	0	0	0	521
2	0	0	0	0	521
3	0	0	0	0	521
4	0	0	0	0	520
5	0	0	0	0	521
6	0	0	0	0	520
7	0	0	0	0	519
8	0	0	0	0	519
9	0	0	0	0	517
10	0	0	0	0	516
11	0	0	0	0	515
12	0	0	0	0	514
13	0	0	0	0	513
14	0	0	0	0	513
15	0	0	0	0	512
0	0	0	0	0	511
1	0	0	0	0	510
2	0	0	0	0	510
3	0	0	0	0	509
4	0	0	0	0	508
5	0	0	0	0	507
6	0	0	0	0	507
7	0	0	0	0	505
8	0	0	0	0	504
9	0	0	0	0	504
10	0	0	0	0	503
11	0	0	0	0	502
12	0	0	0	0	502
13	0	0	0	0	502
14	0	0	0	0	502
15	0	0	0	0	500
0	0	0	0	0	499
1	0	0	0	0	498
2	0	0	0	0	496
3	0	0	0	0	496
4	0	0	0	0	495
5	0	0	0	0	495
6	0	0	0	0	494
7	0	0	0	0	493
8	0	0	0	0	492
9	0	0	0	0	492
10	0	0	0	0	491
11	0	0	0	0	490
12	0	0	0	0	490
13	0	0	0	0	489
14	0	0	0	0	489
15	0	0	0	0	490
0	0	0	0	0	489
1	0	0	0	0	489
2	0	0	0	0	487
3	0	0	0	0	487
4	0	0	0	0	487
5	0	0	0	0	486
6	0	0	0	0	485
7	0	0	0	0	484
8	0	0	0	0	483
9	0	0	0	0	482
10	0	0	0	0	481
11	0	0	0	0	481
12	0	0	0	0	480
13	0	0	0	0	480
14	0	0	0	0	480
15	0	0	0	0	479
0	0	0	0	0	479
1	0	0	0	0	480
2	0	0	0	0	480
3	0	0	0	0	481
4	0	0	0	0	481
5	0	0	0	0	481
6	0	0	0	0	481
7	0	0	0	0	481
8	0	0	0	0	480
9	0	0	0	0	480
10	0	0	0	0	481
11	0	0	0	0	481
12	0	0	0	0	481
13	0	0	0	0	481
14	0	0	0	0	481
15	0	0	0	0	481
0	0	0	0	0	481
1	0	0	0	0	480
2	0	0	0	0	480
3	0	0	0	0	480
4	0	0	0	0	481
5	0	0	0	0	481
6	0	0	0	0	481
7	0	0	0	0	481
8	0	0	0	0	482
9	0	0	0	0	481
10	0	0	0	0	482
11	0	0	0	0	481
12	0	0	0	0	481
13	0	0	0	0	481
14	0	0	0	0	482
15	0	0	0	0	483
0	0	0	0	0	483
1	0	0	0	0	484
2	0	0	0	0	485
3	0	0	0	0	485
4	0	0	0	0	485
5	0	0	0	0	485
6	0	0	0	0	485
7	0	0	0	0	486
8	0	0	0	0	486
9	0	0	0	0	486
10	0	0	0	0	487
11	0	0	0	0	486
12	0	0	0	0	486
13	0	0	0	0	486
14	0	0	0	0	487
15	0	0	0	0	487
0	0	0	0	0	487
1	0	0	0	0	487
2	0	0	0	0	487
3	0	0	0	0	488
4	0	0	0	0	487
5	0	0	0	0	488
6	0	0	0	0	489
7	0	0	0	0	489
8	0	0	0	0	489
9	0	0	0	0	490
10	0	0	0	0	490
11	0	0	0	0	490
12	0	0	0	0	489
13	0	0	0	0	490
14	0	0	0	0	491
15	0	0	0	0	491
0	0	0	0	0	490
1	0	0	0	0	490
2	0	0	0	0	491
3	0	0	0	0	491
4	0	0	0	0	492
5	0	0	0	0	493
6	0	0	0	0	493
7	0	0	0	0	493
8	0	0	0	0	493
9	0	0	0	0	492
10	0	0	0	0	492
11	0	0	0	0	492
12	0	0	0	0	493
13	0	0	0	0	492
14	0	0	0	0	493
15	0	0	0	0	493
0	0	0	0	0	494
1	0	0	0	0	494
2	0	0	0	0	494
3	0	0	0	0	494
4	0	0	0	0	495
5	0	0	0	0	494
6	0	0	0	0	495
7	0	0	0	0	495
8	0	0	0	0	495
9	0	0	0	0	494
10	0	0	0	0	494
11	0	0	0	0	493
12	0	0	0	0	493
13	0	0	0	0	493
14	0	0	0	0	492
15	0	0	0	0	491
0	0	0	0	0	492
1	0	0	0	0	492
2	0	0	0	0	494
3	0	0	0	0	496
4	0	0	0	0	495
5	0	0	0	0	496
6	0	0	0	0	497
7	0	0	0	0	497
8	0	0	0	0	498
9	0	0	0	0	498
10	0	0	0	0	499
11	0	0	0	0	498
12	0	0	0	0	499
13	0	0	0	0	499
14	0	0	0	0	500
15	0	0	0	0	500
0	0	0	0	0	500
1	0	0	0	0	501
2	0	0	0	0	501
3	0	0	0	0	500
4	0	0	0	0	499
5	0	0	0	0	499
6	0	0	0	0	499
7	0	0	0	0	500
8	0	0	0	0	500
9	0	0	0	0	501
10	0	0	0	0	501
11	0	0	0	0	502
12	0	0	0	0	500
13	0	0	0	0	500
14	0	0	0	0	500
15	0	0	0	0	500
0	0	0	0	0	500
1	0	0	0	0	500
2	0	0	0	0	500
3	0	0	0	0	500
4	0	0	0	0	501
5	0	0	0	0	502
6	0	0	0	0	502
7	0	0	0	0	503
8	0	0	0	0	504
9	0	0	0	0	504
10	0	0	0	0	504
11	0	0	0	0	504
12	0	0	0	0	504
13	0	0	0	0	504
14	0	0	0	0	504
15	0	0	0	0	504
0	0	0	0	0	504
1	0	0	0	0	504
2	0	0	0	0	504
3	0	0	0	0	504
4	0	0	0	0	504
5	0	0	0	0	504
6	0	0	0	0	504
7	0	0	0	0	505
8	0	0	0	0	505
9	0	0	0	0	505
10	0	0	0	0	505
11	0	0	0	0	505
12	0	0	0	0	506
13	0	0	0	0	506
14	0	0	0	0	507
15	0	0	0	0	507
0	0	0	0	0	507
1	0	0	0	0	507
2	0	0	0	0	507
3	0	0	0	0	508
4	0	0	0	0	507
5	0	0	0	0	508
6	0	0	0	0	508
7	0	0	0	0	508
8	0	0	0	0	509
9	0	0	0	0	509
10	0	0	0	0	509
11	0	0	0	0	509
12	0	0	0	0	508
13	0	0	0	0	508
14	0	0	0	0	508
15	0	0	0	0	508
0	0	0	0	0	509
1	0	0	0	0	509
2	0	0	0	0	510
3	0	0	0	0	510
4	0	0	0	0	510
5	0	0	0	0	510
6	0	0	0	0	510
7	0	0	0	0	510
8	0	0	0	0	509
9	0	0	0	0	509
10	0	0	0	0	508
11	0	0	0	0	508
12	0	0	0	0	508
13	0	0	0	0	509
14	0	0	0	0	510
15	0	0	0	0	510
0	0	0	0	0	510
1	0	0	0	0	511
2	0	0	0	0	511
3	0	0	0	0	511
4	0	0	0	0	512
5	0	0	0	0	512
6	0	0	0	0	512
7	0	0	0	0	512
8	0	0	0	0	513
9	0	0	0	0	514
10	0	0	0	0	515
11	0	0	0	0	517
12	0	0	0	0	519
13	0	0	0	0	519
14	0	0	0	0	521
15	0	0	0	0	522
0	0	0	0	0	523
1	0	0	0	0	525
2	0	0	0	0	526
3	0	0	0	0	527
4	0	0	0	0	527
5	0	0	0	0	527
6	0	0	0	0	528
7	0	0	0	0	527
8	0	0	0	0	528
9	0	0	0	0	529
10	0	0	0	0	528
11	0	0	0	0	527
12	0	0	0	0	527
13	0	0	0	0	527
14	0	0	0	0	526
15	0	0	0	0	526
0	0	0	0	0	525
1	0	0	0	0	523
2	0	0	0	0	524
3	0	0	0	0	523
4	0	0	0	0	523
5	0	0	0	0	523
6	0	0	0	0	522
7	0	0	0	0	522
8	0	0	0	0	520
9	0	0	0	0	520
10	0	0	0	0	519
11	0	0	0	0	518
12	0	0	0	0	518
13	0	0	0	0	515
14	0	0	0	0	514
15	0	0	0	0	513
0	0	0	0	0	511
1	0	0	0	0	510
2	0	0	0	0	508
3	0	0	0	0	508
4	0	0	0	0	505
5	0	0	0	0	504
6	0	0	0	0	503
7	0	0	0	0	502
8	0	0	0	0	502
9	0	0	0	0	501
10	0	0	0	0	500
11	0	0	0	0	500
12	0	0	0	0	499
13	0	0	0	0	498
14	0	0	0	0	497
15	0	0	0	0	497
0	0	0	0	0	496
1	0	0	0	0	496
2	0	0	0	0	495
3	0	0	0	0	495
4	0	0	0	0	494
5	0	0	0	0	494
6	0	0	0	0	493
7	0	0	0	0	493
8	0	0	0	0	493
9	0	0	0	0	493
10	0	0	0	0	493
11	0	0	0	0	493
12	0	0	0	0	492
13	0	0	0	0	492
14	0	0	0	0	492
15	0	0	0	0	492
0	0	0	0	0	492
1	0	0	0	0	492
2	0	0	0	0	491
3	0	0	0	0	491
4	0	0	0	0	492
5	0	0	0	0	493
6	0	0	0	0	494
7	0	0	0	0	494
8	0	0	0	0	493
9	0	0	0	0	493
10	0	0	0	0	493
11	0	0	0	0	494
12	0	0	0	0	494
13	0	0	0	0	494
14	0	0	0	0	494
15	0	0	0	0	494
0	0	0	0	0	494
1	0	0	0	0	495
2	0	0	0	0	495
3	0	0	0	0	495
4	0	0	0	0	494
5	0	0	0	0	492
6	0	0	0	0	491
7	0	0	0	0	489
8	0	0	0	0	487
9	0	0	0	0	486
10	0	0	0	0	484
11	0	0	0	0	483
12	0	0	0	0	481
13	0	0	0	0	480
14	0	0	0	0	480
15	0	0	0	0	478
0	0	0	0	0	477
1	0	0	0	0	476
2	0	0	0	0	476
3	0	0	0	0	477
4	0	0	0	0	478
5	0	0	0	0	480
6	0	0	0	0	484
7	0	0	0	0	489
8	0	0	0	0	495
9	0	0	0	0	501
10	0	0	0	0	508
11	0	0	0	0	515
12	0	0	0	0	523
13	0	0	0	0	532
14	0	0	0	0	542
15	0	0	0	0	554
0	0	0	0	0	567
1	0	0	0	0	583
2	0	0	0	0	601
3	0	0	0	0	622
4	0	0	0	0	644
5	0	0	0	0	664
6	0	0	0	0	685
7	0	0	0	0	700
8	0	0	0	0	711
9	0	0	0	0	716
10	0	0	0	0	715
11	0	0	0	0	710
12	0	0	0	0	701
13	0	0	0	0	690
14	0	0	0	0	679
15	0	0	0	0	667
0	0	0	0	0	654
1	0	0	0	0	640
2	0	0	0	0	625
3	0	0	0	0	607
4	0	0	0	0	585
5	0	0	0	0	560
6	0	0	0	0	532
7	0	0	0	0	503
8	0	0	0	0	475
9	0	0	0	0	449
10	0	0	0	0	427
11	0	0	0	0	409
12	0	0	0	0	396
13	0	0	0	0	382
14	0	0	0	0	372
15	0	0	0	0	366
0	0	0	0	0	360
1	0	0	0	0	356
2	0	0	0	0	353
3	0	0	0	0	352
4	0	0	0	0	352
5	0	0	0	0	352
6	0	0	0	0	355
7	0	0	0	0	360
8	0	0	0	0	366
9	0	0	0	0	374
10	0	0	0	0	382
11	0	0	0	0	391
12	0	0	0	0	399
13	0	0	0	0	408
14	0	0	0	0	418
15	0	0	0	0	425
0	0	0	0	0	433
1	0	0	0	0	440
2	0	0	0	0	448
3	0	0	0	0	456
4	0	0	0	0	463
5	0	0	0	0	467
6	0	0	0	0	472
7	0	0	0	0	475
8	0	0	0	0	478
9	0	0	0	0	482
10	0	0	0	0	485
11	0	0	0	0	487
12	0	0	0	0	488
13	0	0	0	0	489
14	0	0	0	0	492
15	0	0	0	0	493
0	0	0	0	0	494
1	0	0	0	0	495
2	0	0	0	0	496
3	0	0	0	0	496
4	0	0	0	0	497
5	0	0	0	0	499
6	0	0	0	0	500
7	0	0	0	0	500
8	0	0	0	0	500
9	0	0	0	0	501
10	0	0	0	0	502
11	0	0	0	0	502
12	0	0	0	0	503
13	0	0	0	0	503
14	0	0	0	0	503
15	0	0	0	0	504
0	0	0	0	0	504
1	0	0	0	0	505
2	0	0	0	0	504
3	0	0	0	0	504
4	0	0	0	0	505
5	0	0	0	0	505
6	0	0	0	0	506
7	0	0	0	0	507
8	0	0	0	0	507
9	0	0	0	0	507
10	0	0	0	0	507
11	0	0	0	0	507
12	0	0	0	0	508
13	0	0	0	0	507
14	0	0	0	0	507
15	0	0	0	0	507
0	0	0	0	0	508
1	0	0	0	0	508
2	0	0	0	0	509
3	0	0	0	0	509
4	0	0	0	0	509
5	0	0	0	0	509
6	0	0	0	0	509
7	0	0	0	0	509
8	0	0	0	0	508
9	0	0	0	0	508
10	0	0	0	0	509
11	0	0	0	0	509
12	0	0	0	0	510
13	0	0	0	0	511
14	0	0	0	0	511
15	0	0	0	0	511
0	0	0	0	0	512
1	0	0	0	0	512
2	0	0	0	0	512
3	0	0	0	0	511
4	0	0	0	0	511
5	0	0	0	0	511
6	0	0	0	0	512
7	0	0	0	0	512
8	0	0	0	0	512
9	0	0	0	0	512
10	0	0	0	0	512
11	0	0	0	0	512
12	0	0	0	0	513
13	0	0	0	0	513
14	0	0	0	0	513
15	0	0	0	0	513
0	0	0	0	0	514
1	0	0	0	0	515
2	0	0	0	0	515
3	0	0	0	0	516
4	0	0	0	0	516
5	0	0	0	0	516
6	0	0	0	0	516
7	0	0	0	0	516
8	0	0	0	0	516
9	0	0	0	0	516
10	0	0	0	0	516
11	0	0	0	0	517
12	0	0	0	0	517
13	0	0	0	0	518
14	0	0	0	0	518
15	0	0	0	0	518
0	0	0	0	0	517
1	0	0	0	0	518
2	0	0	0	0	519
3	0	0	0	0	519
4	0	0	0	0	519
5	0	0	0	0	519
6	0	0	0	0	519
7	0	0	0	0	519
8	0	0	0	0	519
9	0	0	0	0	519
10	0	0	0	0	519
11	0	0	0	0	519
12	0	0	0	0	520
13	0	0	0	0	521
14	0	0	0	0	522
15	0	0	0	0	523
0	0	0	0	0	523
1	0	0	0	0	525
2	0	0	0	0	525
3	0	0	0	0	524
4	0	0	0	0	524
5	0	0	0	0	524
6	0	0	0	0	525
7	0	0	0	0	525
8	0	0	0	0	525
9	0	0	0	0	525
10	0	0	0	0	524
11	0	0	0	0	525
12	0	0	0	0	526
13	0	0	0	0	527
14	0	0	0	0	527
15	0	0	0	0	527
0	0	0	0	0	527
1	0	0	0	0	527
2	0	0	0	0	528
3	0	0	0	0	529
4	0	0	0	0	530
5	0	0	0	0	530
6	0	0	0	0	530
7	0	0	0	0	531
8	0	0	0	0	531
9	0	0	0	0	531
10	0	0	0	0	532
11	0	0	0	0	532
12	0	0	0	0	533
13	0	0	0	0	532
14	0	0	0	0	532
15	0	0	0	0	532
0	0	0	0	0	532
1	0	0	0	0	532
2	0	0	0	0	532
3	0	0	0	0	532
4	0	0	0	0	532
5	0	0	0	0	531
6	0	0	0	0	531
7	0	0	0	0	531
8	0	0	0	0	531
9	0	0	0	0	531
10	0	0	0	0	531
11	0	0	0	0	531
12	0	0	0	0	531
13	0	0	0	0	530
14	0	0	0	0	531
15	0	0	0	0	530
0	0	0	0	0	530
1	0	0	0	0	529
2	0	0	0	0	529
3	0	0	0	0	529
4	0	0	0	0	529
5	0	0	0	0	529
6	0	0	0	0	529
7	0	0	0	0	529
8	0	0	0	0	529
9	0	0	0	0	528
10	0	0	0	0	528
11	0	0	0	0	527
12	0	0	0	0	526
13	0	0	0	0	526
14	0	0	0	0	525
15	0	0	0	0	525
0	0	0	0	0	524
1	0	0	0	0	523
2	0	0	0	0	522
3	0	0	0	0	522
4	0	0	0	0	522
5	0	0	0	0	522
6	0	0	0	0	520
7	0	0	0	0	520
8	0	0	0	0	519
9	0	0	0	0	519
10	0	0	0	0	519
11	0	0	0	0	519
12	0	0	0	0	518
13	0	0	0	0	516
14	0	0	0	0	516
15	0	0	0	0	515
0	0	0	0	0	514
1	0	0	0	0	513
2	0	0	0	0	513
3	0	0	0	0	512
4	0	0	0	0	511
5	0	0	0	0	511
6	0	0	0	0	510
7	0	0	0	0	510
8	0	0	0	0	509
9	0	0	0	0	507
10	0	0	0	0	507
11	0	0	0	0	507
12	0	0	0	0	506
13	0	0	0	0	506
14	0	0	0	0	505
15	0	0	0	0	504
0	0	0	0	0	504
1	0	0	0	0	503
2	0	0	0	0	502
3	0	0	0	0	501
4	0	0	0	0	500
5	0	0	0	0	500
6	0	0	0	0	499
7	0	0	0	0	499
8	0	0	0	0	498
9	0	0	0	0	497
10	0	0	0	0	496
11	0	0	0	0	496
12	0	0	0	0	495
13	0	0	0	0	495
14	0	0	0	0	494
15	0	0	0	0	494
0	0	0	0	0	493
1	0	0	0	0	493
2	0	0	0	0	492
3	0	0	0	0	491
4	0	0	0	0	491
5	0	0	0	0	490
6	0	0	0	0	490
7	0	0	0	0	489
8	0	0	0	0	487
9	0	0	0	0	487
10	0	0	0	0	486
11	0	0	0	0	486
12	0	0	0	0	486
13	0	0	0	0	486
14	0	0	0	0	486
15	0	0	0	0	486
0	0	0	0	0	486
1	0	0	0	0	486
2	0	0	0	0	485
3	0	0	0	0	486
4	0	0	0	0	484
5	0	0	0	0	484
6	0	0	0	0	484
7	0	0	0	0	484
8	0	0	0	0	485
9	0	0	0	0	485
10	0	0	0	0	486
11	0	0	0	0	485
12	0	0	0	0	484
13	0	0	0	0	484
14	0	0	0	0	484
15	0	0	0	0	483
0	0	0	0	0	484
1	0	0	0	0	484
2	0	0	0	0	484
3	0	0	0	0	484
4	0	0	0	0	485
5	0	0	0	0	486
6	0	0	0	0	485
7	0	0	0	0	486
8	0	0	0	0	486
9	0	0	0	0	486
10	0	0	0	0	487
11	0	0	0	0	487
12	0	0	0	0	487
13	0	0	0	0	486
14	0	0	0	0	487
15	0	0	0	0	487
0	0	0	0	0	487
1	0	0	0	0	487
2	0	0	0	0	488
3	0	0	0	0	488
4	0	0	0	0	488
5	0	0	0	0	487
6	0	0	0	0	488
7	0	0	0	0	488
8	0	0	0	0	489
9	0	0	0	0	489
10	0	0	0	0	490
11	0	0	0	0	490
12	0	0	0	0	490
13	0	0	0	0	489
14	0	0	0	0	489
15	0	0	0	0	488
0	0	0	0	0	488
1	0	0	0	0	488
2	0	0	0	0	488
3	0	0	0	0	488
4	0	0	0	0	488
5	0	0	0	0	489
6	0	0	0	0	490
7	0	0	0	0	491
8	0	0	0	0	491
9	0	0	0	0	491
10	0	0	0	0	492
11	0	0	0	0	492
12	0	0	0	0	493
13	0	0	0	0	492
14	0	0	0	0	492
15	0	0	0	0	492
0	0	0	0	0	492
1	0	0	0	0	492
2	0	0	0	0	492
3	0	0	0	0	492
4	0	0	0	0	492
5	0	0	0	0	492
6	0	0	0	0	492
7	0	0	0	0	493
8	0	0	0	0	493
9	0	0	0	0	494
10	0	0	0	0	493
11	0	0	0	0	493
12	0	0	0	0	493
13	0	0	0	0	494
14	0	0	0	0	494
15	0	0	0	0	494
0	0	0	0	0	494
1	0	0	0	0	494
2	0	0	0	0	494
3	0	0	0	0	494
4	0	0	0	0	494
5	0	0	0	0	494
6	0	0	0	0	494
7	0	0	0	0	494
8	0	0	0	0	495
9	0	0	0	0	496
10	0	0	0	0	496
11	0	0	0	0	496
12	0	0	0	0	496
13	0	0	0	0	496
14	0	0	0	0	496
15	0	0	0	0	497
0	0	0	0	0	498
1	0	0	0	0	499
2	0	0	0	0	499
3	0	0	0	0	499
4	0	0	0	0	499
5	0	0	0	0	499
6	0	0	0	0	499
7	0	0	0	0	498
8	0	0	0	0	498
9	0	0	0	0	497
10	0	0	0	0	497
11	0	0	0	0	497
12	0	0	0	0	497
13	0	0	0	0	497
14	0	0	0	0	497
15	0	0	0	0	497
0	0	0	0	0	497
1	0	0	0	0	498
2	0	0	0	0	498
3	0	0	0	0	499
4	0	0	0	0	499
5	0	0	0	0	498
6	0	0	0	0	498
7	0	0	0	0	498
8	0	0	0	0	497
9	0	0	0	0	497
10	0	0	0	0	496
11	0	0	0	0	497
12	0	0	0	0	497
13	0	0	0	0	497
14	0	0	0	0	498
15	0	0	0	0	498
0	0	0	0	0	498
1	0	0	0	0	497
2	0	0	0	0	497
3	0	0	0	0	498
4	0	0	0	0	499
5	0	0	0	0	499
6	0	0	0	0	499
7	0	0	0	0	499
8	0	0	0	0	499
9	0	0	0	0	499
10	0	0	0	0	499
11	0	0	0	0	499
12	0	0	0	0	499
13	0	0	0	0	499
14	0	0	0	0	499
15	0	0	0	0	499
0	0	0	0	0	499
1	0	0	0	0	500
2	0	0	0	0	501
3	0	0	0	0	501
4	0	0	0	0	501
5	0	0	0	0	501
6	0	0	0	0	501
7	0	0	0	0	500
8	0	0	0	0	500
9	0	0	0	0	499
10	0	0	0	0	500
11	0	0	0	0	500
12	0	0	0	0	500
13	0	0	0	0	500
14	0	0	0	0	501
15	0	0	0	0	500
0	0	0	0	0	500
1	0	0	0	0	500
2	0	0	0	0	500
3	0	0	0	0	501
4	0	0	0	0	501
5	0	0	0	0	502
6	0	0	0	0	502
7	0	0	0	0	502
8	0	0	0	0	503
9	0	0	0	0	503
10	0	0	0	0	503
11	0	0	0	0	502
12	0	0	0	0	502
13	0	0	0	0	503
14	0	0	0	0	503
15	0	0	0	0	503
0	0	0	0	0	503
1	0	0	0	0	504
2	0	0	0	0	504
3	0	0	0	0	504
4	0	0	0	0	504
5	0	0	0	0	504
6	0	0	0	0	504
7	0	0	0	0	504
8	0	0	0	0	504
9	0	0	0	0	504
10	0	0	0	0	504
11	0	0	0	0	504
12	0	0	0	0	504
13	0	0	0	0	505
14	0	0	0	0	506
15	0	0	0	0	505
0	0	0	0	0	506
1	0	0	0	0	506
2	0	0	0	0	506
3	0	0	0	0	507
4	0	0	0	0	507
5	0	0	0	0	507
6	0	0	0	0	508
7	0	0	0	0	507
8	0	0	0	0	507
9	0	0	0	0	507
10	0	0	0	0	507
11	0	0	0	0	507
12	0	0	0	0	507
13	0	0	0	0	507
14	0	0	0	0	507
15	0	0	0	0	507
0	0	0	0	0	507
1	0	0	0	0	507
2	0	0	0	0	508
3	0	0	0	0	508
4	0	0	0	0	508
5	0	0	0	0	509
6	0	0	0	0	509
7	0	0	0	0	509
8	0	0	0	0	509
9	0	0	0	0	508
10	0	0	0	0	509
11	0	0	0	0	509
12	0	0	0	0	511
13	0	0	0	0	512
14	0	0	0	0	513
15	0	0	0	0	515
0	0	0	0	0	516
1	0	0	0	0	517
2	0	0	0	0	518
3	0	0	0	0	518
4	0	0	0	0	519
5	0	0	0	0	521
6	0	0	0	0	521
7	0	0	0	0	522
8	0	0	0	0	524
9	0	0	0	0	525
10	0	0	0	0	525
11	0	0	0	0	526
12	0	0	0	0	526
13	0	0	0	0	526
14	0	0	0	0	527
15	0	0	0	0	527
0	0	0	0	0	526
1	0	0	0	0	526
2	0	0	0	0	525
3	0	0	0	0	524
4	0	0	0	0	523
5	0	0	0	0	523
6	0	0	0	0	523
7	0	0	0	0	523
8	0	0	0	0	523
9	0	0	0	0	523
10	0	0	0	0	522
11	0	0	0	0	521
12	0	0	0	0	520
13	0	0	0	0	519
14	0	0	0	0	519
15	0	0	0	0	519
0	0	0	0	0	519
1	0	0	0	0	517
2	0	0	0	0	516
3	0	0	0	0	515
4	0	0	0	0	513
5	0	0	0	0	512
6	0	0	0	0	510
7	0	0	0	0	509
8	0	0	0	0	507
9	0	0	0	0	506
10	0	0	0	0	505
11	0	0	0	0	505
12	0	0	0	0	504
13	0	0	0	0	503
14	0	0	0	0	501
15	0	0	0	0	500
0	0	0	0	0	498
1	0	0	0	0	498
2	0	0	0	0	497
3	0	0	0	0	496
4	0	0	0	0	495
5	0	0	0	0	494
6	0	0	0	0	493
7	0	0	0	0	492
8	0	0	0	0	492
9	0	0	0	0	492
10	0	0	0	0	492
11	0	0	0	0	492
12	0	0	0	0	491
13	0	0	0	0	491
14	0	0	0	0	491
15	0	0	0	0	491
0	0	0	0	0	491
1	0	0	0	0	490
2	0	0	0	0	490
3	0	0	0	0	490
4	0	0	0	0	490
5	0	0	0	0	491
6	0	0	0	0	491
7	0	0	0	0	492
8	0	0	0	0	493
9	0	0	0	0	492
10	0	0	0	0	493
11	0	0	0	0	492
12	0	0	0	0	491
13	0	0	0	0	491
14	0	0	0	0	491
15	0	0	0	0	492
0	0	0	0	0	491
1	0	0	0	0	492
2	0	0	0	0	492
3	0	0	0	0	492
4	0	0	0	0	492
5	0	0	0	0	491
6	0	0	0	0	492
7	0	0	0	0	492
8	0	0	0	0	493
9	0	0	0	0	493
10	0	0	0	0	492
11	0	0	0	0	492
12	0	0	0	0	492
13	0	0	0	0	490
14	0	0	0	0	488
15	0	0	0	0	486
0	0	0	0	0	484
1	0	0	0	0	482
2	0	0	0	0	480
3	0	0	0	0	479
4	0	0	0	0	477
5	0	0	0	0	476
6	0	0	0	0	476
7	0	0	0	0	473
8	0	0	0	0	472
9	0	0	0	0	472
10	0	0	0	0	473
11	0	0	0	0	474
12	0	0	0	0	476
13	0	0	0	0	480
14	0	0	0	0	486
15	0	0	0	0	492
0	0	0	0	0	499
1	0	0	0	0	505
2	0	0	0	0	512
3	0	0	0	0	519
4	0	0	0	0	526
5	0	0	0	0	535
6	0	0	0	0	546
7	0	0	0	0	560
8	0	0	0	0	577
9	0	0	0	0	595
10	0	0	0	0	616
11	0	0	0	0	637
12	0	0	0	0	658
13	0	0	0	0	678
14	0	0	0	0	696
15	0	0	0	0	707
0	0	0	0	0	713
1	0	0	0	0	713
2	0	0	0	0	707
3	0	0	0	0	697
4	0	0	0	0	686
5	0	0	0	0	673
6	0	0	0	0	662
7	0	0	0	0	649
8	0	0	0	0	637
9	0	0	0	0	624
10	0	0	0	0	606
11	0	0	0	0	586
12	0	0	0	0	563
13	0	0	0	0	537
14	0	0	0	0	512
15	0	0	0	0	486
0	0	0	0	0	461
1	0	0	0	0	440
2	0	0	0	0	423
3	0	0	0	0	409
4	0	0	0	0	396
5	0	0	0	0	384
6	0	0	0	0	374
7	0	0	0	0	367
8	0	0	0	0	361
9	0	0	0	0	358
10	0	0	0	0	357
11	0	0	0	0	357
12	0	0	0	0	357
13	0	0	0	0	360
14	0	0	0	0	364
15	0	0	0	0	369
0	0	0	0	0	376
1	0	0	0	0	383
2	0	0	0	0	391
3	0	0	0	0	399
4	0	0	0	0	409
5	0	0	0	0	418
6	0	0	0	0	427
7	0	0	0	0	435
8	0	0	0	0	443
9	0	0	0	0	451
10	0	0	0	0	457
11	0	0	0	0	462
12	0	0	0	0	467
13	0	0	0	0	470
14	0	0	0	0	474
15	0	0	0	0	477
0	0	0	0	0	480
1	0	0	0	0	482
2	0	0	0	0	484
3	0	0	0	0	486
4	0	0	0	0	488
5	0	0	0	0	491
6	0	0	0	0	492
7	0	0	0	0	493
8	0	0	0	0	495
9	0	0	0	0	495
10	0	0	0	0	497
11	0	0	0	0	498
12	0	0	0	0	499
13	0	0	0	0	500
14	0	0	0	0	501
15	0	0	0	0	501
0	0	0	0	0	500
1	0	0	0	0	500
2	0	0	0	0	501
3	0	0	0	0	500
4	0	0	0	0	501
5	0	0	0	0	502
6	0	0	0	0	501
7	0	0	0	0	501
8	0	0	0	0	501
9	0	0	0	0	501
10	0	0	0	0	501
11	0	0	0	0	501
12	0	0	0	0	502
13	0	0	0	0	502
14	0	0	0	0	502
15	0	0	0	0	503
0	0	0	0	0	503
1	0	0	0	0	504
2	0	0	0	0	503
3	0	0	0	0	503
4	0	0	0	0	504
5	0	0	0	0	504
6	0	0	0	0	504
7	0	0	0	0	505
8	0	0	0	0	504
9	0	0	0	0	505
10	0	0	0	0	506
11	0	0	0	0	506
12	0	0	0	0	506
13	0	0	0	0	507
14	0	0	0	0	507
15	0	0	0	0	507
0	0	0	0	0	507
1	0	0	0	0	507
2	0	0	0	0	508
3	0	0	0	0	508
4	0	0	0	0	508
5	0	0	0	0	509
6	0	0	0	0	508
7	0	0	0	0	508
8	0	0	0	0	508
9	0	0	0	0	508
10	0	0	0	0	509
11	0	0	0	0	509
12	0	0	0	0	510
13	0	0	0	0	511
14	0	0	0	0	511
15	0	0	0	0	512
0	0	0	0	0	512
1	0	0	0	0	512
2	0	0	0	0	512
3	0	0	0	0	513
4	0	0	0	0	513
5	0	0	0	0	513
6	0	0	0	0	513
7	0	0	0	0	513
8	0	0	0	0	514
9	0	0	0	0	515
10	0	0	0	0	515
11	0	0	0	0	515
12	0	0	0	0	516
13	0	0	0	0	516
14	0	0	0	0	518
15	0	0	0	0	519
0	0	0	0	0	519
1	0	0	0	0	519
2	0	0	0	0	519
3	0	0	0	0	520
4	0	0	0	0	519
5	0	0	0	0	520
6	0	0	0	0	520
7	0	0	0	0	520
8	0	0	0	0	520
9	0	0	0	0	520
10	0	0	0	0	520
11	0	0	0	0	519
12	0	0	0	0	519
13	0	0	0	0	519
14	0	0	0	0	520
15	0	0	0	0	521
0	0	0	0	0	521
1	0	0	0	0	522
2	0	0	0	0	523
3	0	0	0	0	523
4	0	0	0	0	523
5	0	0	0	0	522
6	0	0	0	0	521
7	0	0	0	0	522
8	0	0	0	0	523
9	0	0	0	0	523
10	0	0	0	0	524
11	0	0	0	0	524
12	0	0	0	0	524
13	0	0	0	0	524
14	0	0	0	0	524
15	0	0	0	0	524
0	0	0	0	0	524
1	0	0	0	0	525
2	0	0	0	0	526
3	0	0	0	0	526
4	0	0	0	0	527
5	0	0	0	0	527
6	0	0	0	0	528
7	0	0	0	0	529
8	0	0	0	0	529
9	0	0	0	0	529
10	0	0	0	0	530
11	0	0	0	0	531
12	0	0	0	0	530
13	0	0	0	0	530
14	0	0	0	0	531
15	0	0	0	0	531
0	0	0	0	0	531
1	0	0	0	0	531
2	0	0	0	0	531
3	0	0	0	0	531
4	0	0	0	0	532
5	0	0	0	0	532
6	0	0	0	0	532
7	0	0	0	0	532
8	0	0	0	0	533
9	0	0	0	0	533
10	0	0	0	0	534
11	0	0	0	0	534
12	0	0	0	0	534
13	0	0	0	0	534
14	0	0	0	0	534
15	0	0	0	0	534
0	0	0	0	0	533
1	0	0	0	0	533
2	0	0	0	0	533
3	0	0	0	0	532
4	0	0	0	0	532
5	0	0	0	0	531
6	0	0	0	0	531
7	0	0	0	0	530
8	0	0	0	0	530
9	0	0	0	0	529
10	0	0	0	0	529
11	0	0	0	0	528
12	0	0	0	0	529
13	0	0	0	0	528
14	0	0	0	0	528
15	0	0	0	0	528
0	0	0	0	0	527
1	0	0	0	0	527
2	0	0	0	0	526
3	0	0	0	0	526
4	0	0	0	0	527
5	0	0	0	0	527
6	0	0	0	0	526
7	0	0	0	0	526
8	0	0	0	0	526
9	0	0	0	0	524
10	0	0	0	0	524
11	0	0	0	0	524
12	0	0	0	0	522
13	0	0	0	0	521
14	0	0	0	0	521
15	0	0	0	0	521
0	0	0	0	0	521
1	0	0	0	0	520
2	0	0	0	0	519
3	0	0	0	0	518
4	0	0	0	0	517
5	0	0	0	0	515
6	0	0	0	0	514
7	0	0	0	0	514
8	0	0	0	0	512
9	0	0	0	0	512
10	0	0	0	0	511
11	0	0	0	0	511
12	0	0	0	0	511
13	0	0	0	0	509
14	0	0	0	0	508
15	0	0	0	0	507
0	0	0	0	0	506
1	0	0	0	0	506
2	0	0	0	0	505
3	0	0	0	0	504
4	0	0	0	0	504
5	0	0	0	0	503
6	0	0	0	0	502
7	0	0	0	0	502
8	0	0	0	0	502
9	0	0	0	0	502
10	0	0	0	0	500
11	0	0	0	0	500
12	0	0	0	0	500
13	0	0	0	0	499
14	0	0	0	0	499
15	0	0	0	0	497
0	0	0	0	0	496
1	0	0	0	0	496
2	0	0	0	0	494
3	0	0	0	0	493
4	0	0	0	0	493
5	0	0	0	0	493
6	0	0	0	0	492
7	0	0	0	0	491
8	0	0	0	0	491
9	0	0	0	0	491
10	0	0	0	0	491
11	0	0	0	0	491
12	0	0	0	0	490
13	0	0	0	0	489
14	0	0	0	0	489
15	0	0	0	0	489
0	0	0	0	0	489
1	0	0	0	0	489
2	0	0	0	0	488
3	0	0	0	0	487
4	0	0	0	0	487
5	0	0	0	0	486
6	0	0	0	0	486
7	0	0	0	0	485
8	0	0	0	0	484
9	0	0	0	0	484
10	0	0	0	0	484
11	0	0	0	0	483
12	0	0	0	0	484
13	0	0	0	0	484
14	0	0	0	0	485
15	0	0	0	0	486
0	0	0	0	0	486
1	0	0	0	0	486
2	0	0	0	0	486
3	0	0	0	0	487
4	0	0	0	0	487
5	0	0	0	0	487
6	0	0	0	0	487
7	0	0	0	0	488
8	0	0	0	0	488
9	0	0	0	0	487
10	0	0	0	0	486
11	0	0	0	0	486
12	0	0	0	0	486
13	0	0	0	0	486
14	0	0	0	0	487
15	0	0	0	0	486
0	0	0	0	0	487
1	0	0	0	0	487
2	0	0	0	0	487
3	0	0	0	0	487
4	0	0	0	0	488
5	0	0	0	0	488
6	0	0	0	0	487
7	0	0	0	0	487
8	0	0	0	0	487
9	0	0	0	0	487
10	0	0	0	0	489
11	0	0	0	0	490
12	0	0	0	0	491
13	0	0	0	0	491
14	0	0	0	0	491
15	0	0	0	0	492
0	0	0	0	0	492
1	0	0	0	0	492
2	0	0	0	0	492
3	0	0	0	0	492
4	0	0	0	0	493
5	0	0	0	0	493
6	0	0	0	0	492
7	0	0	0	0	491
8	0	0	0	0	491
9	0	0	0	0	492
10	0	0	0	0	492
11	0	0	0	0	493
12	0	0	0	0	493
13	0	0	0	0	494
14	0	0	0	0	494
15	0	0	0	0	494
0	0	0	0	0	494
1	0	0	0	0	494
2	0	0	0	0	494
3	0	0	0	0	495
4	0	0	0	0	495
5	0	0	0	0	495
6	0	0	0	0	495
7	0	0	0	0	495
8	0	0	0	0	496
9	0	0	0	0	496
10	0	0	0	0	496
11	0	0	0	0	496
12	0	0	0	0	496
13	0	0	0	0	497
14	0	0	0	0	497
15	0	0	0	0	496
0	0	0	0	0	496
1	0	0	0	0	496
2	0	0	0	0	496
3	0	0	0	0	496
4	0	0	0	0	496
5	0	0	0	0	496
6	0	0	0	0	497
7	0	0	0	0	497
8	0	0	0	0	497
9	0	0	0	0	497
10	0	0	0	0	496
11	0	0	0	0	497
12	0	0	0	0	497
13	0	0	0	0	497
14	0	0	0	0	497
15	0	0	0	0	497
0	0	0	0	0	498
1	0	0	0	0	498
2	0	0	0	0	497
3	0	0	0	0	497
4	0	0	0	0	497
5	0	0	0	0	497
6	0	0	0	0	497
7	0	0	0	0	497
8	0	0	0	0	497
9	0	0	0	0	496
10	0	0	0	0	496
11	0	0	0	0	497
12	0	0	0	0	496
13	0	0	0	0	497
14	0	0	0	0	496
15	0	0	0	0	497
0	0	0	0	0	498
1	0	0	0	0	498
2	0	0	0	0	499
3	0	0	0	0	499
4	0	0	0	0	500
5	0	0	0	0	499
6	0	0	0	0	499
7	0	0	0	0	499
8	0	0	0	0	499
9	0	0	0	0	499
10	0	0	0	0	498
11	0	0	0	0	498
12	0	0	0	0	498
13	0	0	0	0	498
14	0	0	0	0	498
15	0	0	0	0	498
0	0	0	0	0	498
1	0	0	0	0	498
2	0	0	0	0	498
3	0	0	0	0	498
4	0	0	0	0	498
5	0	0	0	0	497
6	0	0	0	0	498
7	0	0	0	0	499
8	0	0	0	0	499
9	0	0	0	0	499
10	0	0	0	0	499
11	0	0	0	0	499
12	0	0	0	0	499
13	0	0	0	0	499
14	0	0	0	0	499
15	0	0	0	0	499
0	0	0	0	0	499
1	0	0	0	0	499
2	0	0	0	0	499
3	0	0	0	0	499
4	0	0	0	0	499
5	0	0	0	0	499
6	0	0	0	0	499
7	0	0	0	0	498
8	0	0	0	0	498
9	0	0	0	0	499
10	0	0	0	0	500
11	0	0	0	0	500
12	0	0	0	0	501
13	0	0	0	0	501
14	0	0	0	0	500
15	0	0	0	0	501
0	0	0	0	0	502
1	0	0	0	0	502
2	0	0	0	0	503
3	0	0	0	0	503
4	0	0	0	0	503
5	0	0	0	0	503
6	0	0	0	0	502
7	0	0	0	0	502
8	0	0	0	0	502
9	0	0	0	0	502
10	0	0	0	0	501
11	0	0	0	0	501
12	0	0	0	0	501
13	0	0	0	0	502
14	0	0	0	0	503
15	0	0	0	0	503
0	0	0	0	0	503
1	0	0	0	0	504
2	0	0	0	0	504
3	0	0	0	0	504
4	0	0	0	0	503
5	0	0	0	0	503
6	0	0	0	0	503
7	0	0	0	0	503
8	0	0	0	0	504
9	0	0	0	0	505
10	0	0	0	0	505
11	0	0	0	0	505
12	0	0	0	0	505
13	0	0	0	0	504
14	0	0	0	0	503
15	0	0	0	0	503
0	0	0	0	0	503
1	0	0	0	0	504
2	0	0	0	0	503
3	0	0	0	0	503
4	0	0	0	0	503
5	0	0	0	0	503
6	0	0	0	0	504
7	0	0	0	0	503
8	0	0	0	0	503
9	0	0	0	0	503
10	0	0	0	0	503
11	0	0	0	0	503
12	0	0	0	0	503
13	0	0	0	0	503
14	0	0	0	0	504
15	0	0	0	0	505
0	0	0	0	0	504
1	0	0	0	0	505
2	0	0	0	0	504
3	0	0	0	0	505
4	0	0	0	0	505
5	0	0	0	0	504
6	0	0	0	0	504
7	0	0	0	0	504
8	0	0	0	0	504
9	0	0	0	0	505
10	0	0	0	0	505
11	0	0	0	0	507
12	0	0	0	0	507
13	0	0	0	0	507
14	0	0	0	0	507
15	0	0	0	0	506
0	0	0	0	0	507
1	0	0	0	0	507
2	0	0	0	0	507
3	0	0	0	0	507
4	0	0	0	0	507
5	0	0	0	0	508
6	0	0	0	0	507
7	0	0	0	0	508
8	0	0	0	0	508
9	0	0	0	0	507
10	0	0	0	0	507
11	0	0	0	0	507
12	0	0	0	0	507
13	0	0	0	0	508
14	0	0	0	0	508
15	0	0	0	0	508
0	0	0	0	0	508
1	0	0	0	0	508
2	0	0	0	0	508
3	0	0	0	0	508
4	0	0	0	0	508
5	0	0	0	0	508
6	0	0	0	0	507
7	0	0	0	0	508
8	0	0	0	0	507
9	0	0	0	0	507
10	0	0	0	0	507
11	0	0	0	0	507
12	0	0	0	0	507
13	0	0	0	0	508
14	0	0	0	0	508
15	0	0	0	0	509
0	0	0	0	0	509
1	0	0	0	0	509
2	0	0	0	0	509
3	0	0	0	0	510
4	0	0	0	0	509
5	0	0	0	0	510
6	0	0	0	0	511
7	0	0	0	0	514
8	0	0	0	0	516
9	0	0	0	0	518
10	0	0	0	0	519
11	0	0	0	0	520
