-1.0019420901386533e-17
-0.0002729066828850276
-0.0004947568267859245
-0.0006229500684293417
-0.0006326113148402831
-0.0005214153975238039
-0.0003101224730598228
-3.870454901281177e-05
0.00024121461072693925
0.0004761766545437928
0.0006210962984400093
0.0006479106829941799
0.0005510114373702236
0.0003484083865273679
7.83850638524715e-05
-0.00020773343829092302
-0.0004553344035946318
-0.0006169398872358105
-0.000661308880858402
-0.0005794745868377576
-0.0003865505138910311
-0.00011894270609150455
0.0001725183492017291
0.0004322308259216572
0.0006104268262178777
0.0006727073578010488
0.0006066805874688986
0.0004244227403869175
0.00016027379588579661
-0.00013563053592203743
-0.00040687269124982915
-0.0006015079722234165
-0.0006820103365528764
-0.000632505325366828
-0.0004618964372775082
-0.00020226996431292512
9.713715142171515e-05
0.0003792728514629067
0.0005901392118438637
0.0006891250455541142
0.0006568250868636517
0.0004988406919109057
0.00024481831403985727
-5.7111248196458255e-05
-0.0003494502904051631
-0.0005762816118944689
-0.000693961940821433
-0.0006795168090590948
-0.0005351225389883709
-0.0002878015873441871
1.5631705134743398e-05
0.00031743015898335025
0.0005599015553779404
0.0006964349162215813
0.0007004583238690164
0.000570607191693908
0.0003310983404158565
2.7216857182318817e-05
-0.0002832437955458971
-0.0005409708623040545
-0.000696461501014166
-0.0007195285941591802
-0.000605158271245654
-0.0003745831227654959
-7.134417207110126e-05
0.00024692873157767934
0.0005194668947475865
0.000693963043497581
0.000736607940468032
0.0006386380333285835
0.00041812666045296413
0.0001166544324506447
-0.00020852868281477803
-0.0004953726455448762
-0.0006888648795588957
-0.0007515782567425131
-0.0006709075897567018
-0.0004615960417300955
-0.000163046405781594
0.00016809352595189905
0.0004686768100462117
0.0006810964848884651
0.0007643232134206875
0.0007018271235893109
0.0005048549035592967
0.00021041355724383482
-0.00012567926118846415
-0.0004393738403562397
-0.0006705916095719862
-0.0007747284460925061
-0.0007312560957884056
-0.0005477636173232199
-0.0002586441800333963
8.134796093491547e-05
0.0004074639815059105
0.0006572883937151653
0.0007826817278522739
0.0007590534413488663
0.000590179471878856
0.00030762153152231336
-3.516770508324387e-05
-0.0003729532890072176
-0.0006411294626861258
-0.0007880731233205464
-0.0007850777526565672
-0.0006319568519274045
-0.0003572239738753106
-1.2787496668157844e-05
0.0003358536272455092
0.0006220620004761432
0.0007907951221553829
0.000809187447628316
0.0006729474094654974
0.0004073251175500202
6.243779485214386e-05
-0.0002961826481607247
-0.000600037799577465
-0.0007907427496885132
-0.0008312409199557331
-0.0007130002258503939
-0.00045779396591973565
-0.00011369760194865922
0.0002539637496584772
0.0005750132856529566
0.0007878136521059758
0.0008510966685070019
0.000751961961744789
0.0005084950590473972
0.00016647570498601314
-0.00020922601317312708
-0.0005469495151229874
-0.0007819081533380659
-0.0008686134026287106
-0.0007896769918986923
-0.0005592886143994028
-0.00022067538811473226
0.00016200411977388972
0.000515812143614162
0.0007729292805225621
0.0008836501197254527
0.0008259875213708353
0.0006100306620136853
0.0002761945641092775
-0.00011233824416164952
-0.00048157136299533944
-0.0007607827545482957
-0.0008960661510664124
-0.0008607336793759245
-0.0006605731713210918
-0.00033292591360571487
6.027392584415401e-05
0.00044420180446236676
0.0007453769417610978
0.0009057211712629251
0.0008937535864586404
0.0007107641664522979
0.00039075703071885995
-5.861916696990195e-06
-0.00040368240481213617
-0.0007266227624075167
-0.0009124751662618916
-0.0009248833901225515
-0.0007604478264357727
-0.00044957057349457225
-5.084199598516356e-05
0.00035999623265851096
0.0007044335507843526
0.0009161883539873153
0.0009539572633642585
0.0008094645661905338
0.0005092444174397929
0.00010977719197615679
-0.0003131302708728542
-0.0006787248613329197
-0.0009167210509103943
-0.0009808073597573537
-0.000857651093624329
-0.0005696518101264124
-0.00017087844734264073
0.0002630751509601148
0.0006494142140392188
0.0009139334768072625
0.0010052637177675018
0.0009048404374442316
0.0006306615245777215
0.00023407619181423916
-0.0002098248343865715
-0.000616420771439528
-0.0009076854887330709
-0.001027154105823502
-0.0009508619394452872
-0.0006921380088105773
-0.00029929679597530547
0.00015337623502925663
0.0005796649382440564
0.0008978362337533942
0.0010463037982746386
0.0009955412040318211
0.000753941528508733
0.00036646289028568357
-9.372877588179225e-05
-0.0005390678730263241
-0.0008842437081682965
-0.0010625352706745638
-0.0010386999965057637
-0.0008159282993282294
-0.0004354937183504659
3.088387188373699e-05
0.0004945508995136196
0.000866764208762402
0.00107566780077483
0.0010801560801740333
0.00087795060476718
0.0005063055273743002
3.515567081645024e-05
-0.00044603480267013803
-0.0008452516589184046
-0.0010855169590950604
-0.0011197229805173627
-0.0009398568948436254
-0.0005788119993773559
-0.00010438635077674603
0.0003934389918804974
0.0008195567891164462
0.001091893969844446
0.0011572096624427918
0.001001491859985454
0.000652924727549795
0.00017680477634499076
-0.0003366805099739172
-0.0007895261472445344
-0.001094604919149921
-0.001192420103901617
-0.0010626964735077201
-0.0007285537431242755
-0.00025240859685645854
0.00027567286240073283
0.0007550009090584038
0.0010934497828045246
0.0012251527457550254
0.0011233079947802378
0.0008056080994011579
0.00033119758058364836
-0.00021032463534472539
-0.000715815452780238
-0.001088221239831009
-0.001255199793527062
-0.0011831599236064542
-0.0008839965211437225
-0.00041317486470838995
0.00014053786461879376
0.0006717956538586247
0.0010787032307264148
0.0012823463413595278
0.0012420818943537052
0.0009636281295603667
0.0004983484084308551
-6.620610844232228e-05
-0.0006227568458571286
-0.0010646692098742175
-0.0013063692817584548
-0.001299899495876251
-0.0010444132556318
-0.0005867326877419536
-1.2787833903901432e-05
0.0005685013806729846
0.001045880029693887
0.0013270359561746937
0.001356434000100879
0.0011262643577880243
0.0006783506798483944
9.657462972734827e-05
-0.0005088157049747993
-0.0010220813788617686
-0.0013441024905254742
-0.0014115019780871966
-0.001209097064110876
-0.0007732361973919851
-0.00018530163728293212
0.0004434668487637888
0.0009930006773192456
0.0013573117456735727
0.0014649147771471835
0.0012928313646333766
0.0008714366483250271
0.00027913676083702823
-0.0003721981947732393
-0.000958343305342606
-0.0013663907945907583
-0.0015164778258202432
-0.0013773929863343636
-0.0009730163177873711
-0.0003782730811986891
0.00029472436192338954
0.0009177880106988398
0.001371047814004538
0.0015659897246129428
0.0014627149926501103
0.0010780602952314639
0.00048293444693131354
-0.00021072498932592882
-0.0008709812940969347
-0.0013709682467619134
-0.0016132410686791865
-0.0015487396615281603
-0.0011866792056700911
-0.000593382265093572
0.00011983714530520523
0.0008175305149048382
0.0013658100491349572
0.001658012932983388
0.001635420712339551
0.0012990149515351096
0.0007099238021291774
-2.164600279170045e-05
-0.0007569953809633808
-0.001355197780853661
-0.0017000749294600397
-0.0017227259739191472
-0.0014152477358801072
-0.0008329224025031008
-8.432669001639555e-05
0.0006888773804421966
0.0013387152190596668
0.001739182717104594
0.0018106406158898138
0.0015356047252467033
0.000962810165093566
0.0001986369686178488
-0.0006126065686554696
-0.0013158960723053893
-0.0017750748066650552
-0.0018991711065596834
-0.0016603708312555156
-0.0011001038001846313
-0.00032193667840160745
0.0005275249218312019
0.001286212224908332
0.0018074684470184234
0.001988350117966749
0.0017899022584270147
0.0012454246454289366
0.00045499630348012595
-0.0004328651880022586
-0.0012490587370685966
-0.001836054303468696
-0.002078242679445368
-0.0019246437037818676
-0.0013995241809529372
-0.0005987341560694767
0.00032772376457948857
0.0012037345343136508
0.0018604895285266314
0.0021689539966405318
0.002065150434897691
0.001563316903336887
0.0007542540923252506
-0.0002110255544308312
-0.0011494172980376213
-0.0018803886668702623
-0.0022606395206338226
-0.0022121169694078167
-0.001737923175835874
-0.0009228948091843785
8.147790591289293e-05
0.0010851304495184137
0.0018953116023453268
0.0023535180993389643
0.002366414813022704
0.001924725795614417
0.0011062950977385013
6.24905190504671e-05
-0.0010096991943455624
-0.0019047474045586553
-0.00244788941505877
-0.002529142818730168
-0.0021254457152661255
-0.0013064814290253688
-0.0002228120201638408
0.000921691184873176
0.0019080923976163397
0.0025441574814581646
0.002701695428192308
0.002342244969828874
0.0015259873396145625
0.0004018923178868769
-0.0008193351667080232
-0.0019046199389442903
-0.0026428628642701044
-0.0028858567230239775
-0.0025778689783740208
-0.0017680189709406852
-0.0006027669466842655
0.000700407487169339
0.001893438063099842
0.0027447277183030687
0.0030839325035009655
0.002835847038118094
0.0020366890359886742
0.0008293229944033278
-0.0005620706470269546
-0.0018734289598389972
-0.0028507200844341074
-0.0032989397027514706
-0.003120780864059245
-0.002337354686382737
-0.0010866204241311045
0.00040063850029800483
0.001843160565166149
0.002962147878063039
0.0035348845260768642
0.003438769917677408
0.002677117456012063
0.0013813693795460963
-0.0002112260739302604
-0.0018007541020032079
-0.003080799997036618
-0.0037971820125859857
-0.0037980557612909962
-0.0030655839280645794
-0.0017226596039264881
-1.2788002523785829e-05
0.001743679728201616
0.003209164735417313
0.004093308803666469
0.00421002949072222
0.0035160609323187206
0.002123112355428068
0.0002806148663719891
-0.0016684303341923492
-0.0033507800129542777
-0.004433855939093301
-0.004690865809987767
-0.0040475054437450145
-0.0026007708721268023
-0.0006054644864188884
0.001569979475814053
0.0035108187716435895
0.004834300404276783
0.0052642912723512465
0.004687850691567517
0.003182347987588434
0.0010069839566297844
-0.001440836245819883
-0.0036971171739956406
-0.005318141648792631
-0.0059665254534401945
-0.005479992931793053
-0.003909122151414273
-0.0015157236595326558
0.001269298110151286
0.003922092981514576
0.005922811156929973
0.006855684809876926
0.006493304202376543
0.004848398059193977
0.0021819155465742477
-0.0010359770287132431
-0.004206605184280757
-0.006711710128041646
-0.008031185210911826
-0.007847704118297898
-0.006117802962314955
-0.0030943523812894105
0.0007062155302817866
0.004588512039643208
0.0078013387807245906
0.009678218064425545
0.009769826978197189
0.007943039891207215
0.004426145786990537
-0.0002113263765262538
-0.005144299255544314
-0.009431422562126266
-0.012185480670365205
-0.01274547479131144
-0.010818858987859035
-0.006565899125038158
-0.0006068159652550271
0.006055019186688998
0.012186078789734623
0.016530185515942764
0.01803795678417572
0.016079773416276845
0.010604316228131969
0.002211677593181828
-0.007877373663486736
-0.017958102259099495
-0.02606918923160667
-0.030279785601686163
-0.028993939191447705
-0.021225229058578536
-0.006797020196209654
0.0135664079570335
0.03827688433556762
0.06504732199694242
0.09116472386495308
0.11383421151159707
0.13054539532065518
0.139408077028404
0.139408077028404
0.13054539532065518
0.11383421151159707
0.09116472386495308
0.06504732199694242
0.03827688433556762
0.0135664079570335
-0.006797020196209654
-0.021225229058578536
-0.028993939191447705
-0.030279785601686163
-0.02606918923160667
-0.017958102259099495
-0.007877373663486736
0.002211677593181828
0.010604316228131969
0.016079773416276845
0.01803795678417572
0.016530185515942764
0.012186078789734623
0.006055019186688998
-0.0006068159652550271
-0.006565899125038158
-0.010818858987859035
-0.01274547479131144
-0.012185480670365205
-0.009431422562126266
-0.005144299255544314
-0.0002113263765262538
0.004426145786990537
0.007943039891207215
0.009769826978197189
0.009678218064425545
0.0078013387807245906
0.004588512039643208
0.0007062155302817866
-0.0030943523812894105
-0.006117802962314955
-0.007847704118297898
-0.008031185210911826
-0.006711710128041646
-0.004206605184280757
-0.0010359770287132431
0.0021819155465742477
0.004848398059193977
0.006493304202376543
0.006855684809876926
0.005922811156929973
0.003922092981514576
0.001269298110151286
-0.0015157236595326558
-0.003909122151414273
-0.005479992931793053
-0.0059665254534401945
-0.005318141648792631
-0.0036971171739956406
-0.001440836245819883
0.0010069839566297844
0.003182347987588434
0.004687850691567517
0.0052642912723512465
0.004834300404276783
0.0035108187716435895
0.001569979475814053
-0.0006054644864188884
-0.0026007708721268023
-0.0040475054437450145
-0.004690865809987767
-0.004433855939093301
-0.0033507800129542777
-0.0016684303341923492
0.0002806148663719891
0.002123112355428068
0.0035160609323187206
0.00421002949072222
0.004093308803666469
0.003209164735417313
0.001743679728201616
-1.2788002523785829e-05
-0.0017226596039264881
-0.0030655839280645794
-0.0037980557612909962
-0.0037971820125859857
-0.003080799997036618
-0.0018007541020032079
-0.0002112260739302604
0.0013813693795460963
0.002677117456012063
0.003438769917677408
0.0035348845260768642
0.002962147878063039
0.001843160565166149
0.00040063850029800483
-0.0010866204241311045
-0.002337354686382737
-0.003120780864059245
-0.0032989397027514706
-0.0028507200844341074
-0.0018734289598389972
-0.0005620706470269546
0.0008293229944033278
0.0020366890359886742
0.002835847038118094
0.0030839325035009655
0.0027447277183030687
0.001893438063099842
0.000700407487169339
-0.0006027669466842655
-0.0017680189709406852
-0.0025778689783740208
-0.0028858567230239775
-0.0026428628642701044
-0.0019046199389442903
-0.0008193351667080232
0.0004018923178868769
0.0015259873396145625
0.002342244969828874
0.002701695428192308
0.0025441574814581646
0.0019080923976163397
0.000921691184873176
-0.0002228120201638408
-0.0013064814290253688
-0.0021254457152661255
-0.002529142818730168
-0.00244788941505877
-0.0019047474045586553
-0.0010096991943455624
6.24905190504671e-05
0.0011062950977385013
0.001924725795614417
0.002366414813022704
0.0023535180993389643
0.0018953116023453268
0.0010851304495184137
8.147790591289293e-05
-0.0009228948091843785
-0.001737923175835874
-0.0022121169694078167
-0.0022606395206338226
-0.0018803886668702623
-0.0011494172980376213
-0.0002110255544308312
0.0007542540923252506
0.001563316903336887
0.002065150434897691
0.0021689539966405318
0.0018604895285266314
0.0012037345343136508
0.00032772376457948857
-0.0005987341560694767
-0.0013995241809529372
-0.0019246437037818676
-0.002078242679445368
-0.001836054303468696
-0.0012490587370685966
-0.0004328651880022586
0.00045499630348012595
0.0012454246454289366
0.0017899022584270147
0.001988350117966749
0.0018074684470184234
0.001286212224908332
0.0005275249218312019
-0.00032193667840160745
-0.0011001038001846313
-0.0016603708312555156
-0.0018991711065596834
-0.0017750748066650552
-0.0013158960723053893
-0.0006126065686554696
0.0001986369686178488
0.000962810165093566
0.0015356047252467033
0.0018106406158898138
0.001739182717104594
0.0013387152190596668
0.0006888773804421966
-8.432669001639555e-05
-0.0008329224025031008
-0.0014152477358801072
-0.0017227259739191472
-0.0017000749294600397
-0.001355197780853661
-0.0007569953809633808
-2.164600279170045e-05
0.0007099238021291774
0.0012990149515351096
0.001635420712339551
0.001658012932983388
0.0013658100491349572
0.0008175305149048382
0.00011983714530520523
-0.000593382265093572
-0.0011866792056700911
-0.0015487396615281603
-0.0016132410686791865
-0.0013709682467619134
-0.0008709812940969347
-0.00021072498932592882
0.00048293444693131354
0.0010780602952314639
0.0014627149926501103
0.0015659897246129428
0.001371047814004538
0.0009177880106988398
0.00029472436192338954
-0.0003782730811986891
-0.0009730163177873711
-0.0013773929863343636
-0.0015164778258202432
-0.0013663907945907583
-0.000958343305342606
-0.0003721981947732393
0.00027913676083702823
0.0008714366483250271
0.0012928313646333766
0.0014649147771471835
0.0013573117456735727
0.0009930006773192456
0.0004434668487637888
-0.00018530163728293212
-0.0007732361973919851
-0.001209097064110876
-0.0014115019780871966
-0.0013441024905254742
-0.0010220813788617686
-0.0005088157049747993
9.657462972734827e-05
0.0006783506798483944
0.0011262643577880243
0.001356434000100879
0.0013270359561746937
0.001045880029693887
0.0005685013806729846
-1.2787833903901432e-05
-0.0005867326877419536
-0.0010444132556318
-0.001299899495876251
-0.0013063692817584548
-0.0010646692098742175
-0.0006227568458571286
-6.620610844232228e-05
0.0004983484084308551
0.0009636281295603667
0.0012420818943537052
0.0012823463413595278
0.0010787032307264148
0.0006717956538586247
0.00014053786461879376
-0.00041317486470838995
-0.0008839965211437225
-0.0011831599236064542
-0.001255199793527062
-0.001088221239831009
-0.000715815452780238
-0.00021032463534472539
0.00033119758058364836
0.0008056080994011579
0.0011233079947802378
0.0012251527457550254
0.0010934497828045246
0.0007550009090584038
0.00027567286240073283
-0.00025240859685645854
-0.0007285537431242755
-0.0010626964735077201
-0.001192420103901617
-0.001094604919149921
-0.0007895261472445344
-0.0003366805099739172
0.00017680477634499076
0.000652924727549795
0.001001491859985454
0.0011572096624427918
0.001091893969844446
0.0008195567891164462
0.0003934389918804974
-0.00010438635077674603
-0.0005788119993773559
-0.0009398568948436254
-0.0011197229805173627
-0.0010855169590950604
-0.0008452516589184046
-0.00044603480267013803
3.515567081645024e-05
0.0005063055273743002
0.00087795060476718
0.0010801560801740333
0.00107566780077483
0.000866764208762402
0.0004945508995136196
3.088387188373699e-05
-0.0004354937183504659
-0.0008159282993282294
-0.0010386999965057637
-0.0010625352706745638
-0.0008842437081682965
-0.0005390678730263241
-9.372877588179225e-05
0.00036646289028568357
0.000753941528508733
0.0009955412040318211
0.0010463037982746386
0.0008978362337533942
0.0005796649382440564
0.00015337623502925663
-0.00029929679597530547
-0.0006921380088105773
-0.0009508619394452872
-0.001027154105823502
-0.0009076854887330709
-0.000616420771439528
-0.0002098248343865715
0.00023407619181423916
0.0006306615245777215
0.0009048404374442316
0.0010052637177675018
0.0009139334768072625
0.0006494142140392188
0.0002630751509601148
-0.00017087844734264073
-0.0005696518101264124
-0.000857651093624329
-0.0009808073597573537
-0.0009167210509103943
-0.0006787248613329197
-0.0003131302708728542
0.00010977719197615679
0.0005092444174397929
0.0008094645661905338
0.0009539572633642585
0.0009161883539873153
0.0007044335507843526
0.00035999623265851096
-5.084199598516356e-05
-0.00044957057349457225
-0.0007604478264357727
-0.0009248833901225515
-0.0009124751662618916
-0.0007266227624075167
-0.00040368240481213617
-5.861916696990195e-06
0.00039075703071885995
0.0007107641664522979
0.0008937535864586404
0.0009057211712629251
0.0007453769417610978
0.00044420180446236676
6.027392584415401e-05
-0.00033292591360571487
-0.0006605731713210918
-0.0008607336793759245
-0.0008960661510664124
-0.0007607827545482957
-0.00048157136299533944
-0.00011233824416164952
0.0002761945641092775
0.0006100306620136853
0.0008259875213708353
0.0008836501197254527
0.0007729292805225621
0.000515812143614162
0.00016200411977388972
-0.00022067538811473226
-0.0005592886143994028
-0.0007896769918986923
-0.0008686134026287106
-0.0007819081533380659
-0.0005469495151229874
-0.00020922601317312708
0.00016647570498601314
0.0005084950590473972
0.000751961961744789
0.0008510966685070019
0.0007878136521059758
0.0005750132856529566
0.0002539637496584772
-0.00011369760194865922
-0.00045779396591973565
-0.0007130002258503939
-0.0008312409199557331
-0.0007907427496885132
-0.000600037799577465
-0.0002961826481607247
6.243779485214386e-05
0.0004073251175500202
0.0006729474094654974
0.000809187447628316
0.0007907951221553829
0.0006220620004761432
0.0003358536272455092
-1.2787496668157844e-05
-0.0003572239738753106
-0.0006319568519274045
-0.0007850777526565672
-0.0007880731233205464
-0.0006411294626861258
-0.0003729532890072176
-3.516770508324387e-05
0.00030762153152231336
0.000590179471878856
0.0007590534413488663
0.0007826817278522739
0.0006572883937151653
0.0004074639815059105
8.134796093491547e-05
-0.0002586441800333963
-0.0005477636173232199
-0.0007312560957884056
-0.0007747284460925061
-0.0006705916095719862
-0.0004393738403562397
-0.00012567926118846415
0.00021041355724383482
0.0005048549035592967
0.0007018271235893109
0.0007643232134206875
0.0006810964848884651
0.0004686768100462117
0.00016809352595189905
-0.000163046405781594
-0.0004615960417300955
-0.0006709075897567018
-0.0007515782567425131
-0.0006888648795588957
-0.0004953726455448762
-0.00020852868281477803
0.0001166544324506447
0.00041812666045296413
0.0006386380333285835
0.000736607940468032
0.000693963043497581
0.0005194668947475865
0.00024692873157767934
-7.134417207110126e-05
-0.0003745831227654959
-0.000605158271245654
-0.0007195285941591802
-0.000696461501014166
-0.0005409708623040545
-0.0002832437955458971
2.7216857182318817e-05
0.0003310983404158565
0.000570607191693908
0.0007004583238690164
0.0006964349162215813
0.0005599015553779404
0.00031743015898335025
1.5631705134743398e-05
-0.0002878015873441871
-0.0005351225389883709
-0.0006795168090590948
-0.000693961940821433
-0.0005762816118944689
-0.0003494502904051631
-5.7111248196458255e-05
0.00024481831403985727
0.0004988406919109057
0.0006568250868636517
0.0006891250455541142
0.0005901392118438637
0.0003792728514629067
9.713715142171515e-05
-0.00020226996431292512
-0.0004618964372775082
-0.000632505325366828
-0.0006820103365528764
-0.0006015079722234165
-0.00040687269124982915
-0.00013563053592203743
0.00016027379588579661
0.0004244227403869175
0.0006066805874688986
0.0006727073578010488
0.0006104268262178777
0.0004322308259216572
0.0001725183492017291
-0.00011894270609150455
-0.0003865505138910311
-0.0005794745868377576
-0.000661308880858402
-0.0006169398872358105
-0.0004553344035946318
-0.00020773343829092302
7.83850638524715e-05
0.0003484083865273679
0.0005510114373702236
0.0006479106829941799
0.0006210962984400093
0.0004761766545437928
0.00024121461072693925
-3.870454901281177e-05
-0.0003101224730598228
-0.0005214153975238039
-0.0006326113148402831
-0.0006229500684293417
-0.0004947568267859245
-0.0002729066828850276
-1.0019420901386533e-17